# GF180MCU-D nfet_03v3 gm/ID Processed Lookup Table
# Corner: fs
# Temperature: -40C
# W = 2.0 um
# L = 5 um (5000 nm)
# Columns: gm/id [1/V]  gm/gds [V/V]  id/W [A/m]  ft [Hz]  Cgg/W [F/m]  Cgd/W [F/m]  Cgs/W [F/m]  Cdb/W [F/m]  vgs [V]  vth [V]  vdsat [V]
# vdsat = BSIM saturation voltage (|VDS|_sat, positive); use for headroom / saturation / cascode-bias calculations
#           gm/id          gm/gds            id/W              ft           Cgg/W           Cgd/W           Cgs/W           Cdb/W             vgs             vth           vdsat
    3.431850e+01    7.440047e+02    5.035180e-05    4.312347e+04    6.377490e-09    1.464760e-15    1.602984e-10    3.881998e-11    4.100000e-01    6.496258e-01    2.868920e-02
    3.429516e+01    7.403223e+02    7.096460e-05    6.068668e+04    6.382655e-09    1.730562e-15    1.975164e-10    4.561491e-11    4.200000e-01    6.496258e-01    2.870756e-02
    3.418897e+01    7.360996e+02    9.995000e-05    8.507359e+04    6.392845e-09    2.044026e-15    2.415042e-10    5.359840e-11    4.300000e-01    6.496258e-01    2.873334e-02
    3.401017e+01    7.313063e+02    1.405730e-04    1.187256e+05    6.408945e-09    2.413718e-15    2.934988e-10    6.297665e-11    4.400000e-01    6.496258e-01    2.876940e-02
    3.376496e+01    7.259330e+02    1.972871e-04    1.648314e+05    6.431985e-09    2.849732e-15    3.549408e-10    7.398710e-11    4.500000e-01    6.496258e-01    2.881961e-02
    3.345701e+01    7.200036e+02    2.761170e-04    2.274872e+05    6.463140e-09    3.363926e-15    4.274909e-10    8.690070e-11    4.600000e-01    6.496258e-01    2.888913e-02
    3.308863e+01    7.135865e+02    3.851398e-04    3.118543e+05    6.503775e-09    3.970184e-15    5.130435e-10    1.020235e-10    4.700000e-01    6.496258e-01    2.898477e-02
    3.266174e+01    7.068065e+02    5.350765e-04    4.243021e+05    6.555415e-09    4.684691e-15    6.137330e-10    1.196967e-10    4.800000e-01    6.496258e-01    2.911537e-02
    3.217881e+01    6.998575e+02    7.400085e-04    5.725115e+05    6.619765e-09    5.526225e-15    7.319330e-10    1.402958e-10    4.900000e-01    6.496258e-01    2.929217e-02
    3.164332e+01    6.930069e+02    1.018227e-03    7.655185e+05    6.698705e-09    6.516430e-15    8.702400e-10    1.642267e-10    5.000000e-01    6.496258e-01    2.952916e-02
    3.106009e+01    6.865940e+02    1.393224e-03    1.013686e+06    6.794230e-09    7.680100e-15    1.031443e-09    1.919191e-10    5.100000e-01    6.496258e-01    2.984326e-02
    3.043513e+01    6.810151e+02    1.894835e-03    1.328571e+06    6.908470e-09    9.045400e-15    1.218468e-09    2.238160e-10    5.200000e-01    6.496258e-01    3.025443e-02
    2.977510e+01    6.766979e+02    2.560525e-03    1.722696e+06    7.043585e-09    1.064406e-14    1.434290e-09    2.603583e-10    5.300000e-01    6.496258e-01    3.078533e-02
    2.908659e+01    6.740647e+02    3.436815e-03    2.209200e+06    7.201685e-09    1.251143e-14    1.681819e-09    3.019637e-10    5.400000e-01    6.496258e-01    3.146079e-02
    2.837515e+01    6.734845e+02    4.580802e-03    2.801329e+06    7.384750e-09    1.468642e-14    1.963740e-09    3.490003e-10    5.500000e-01    6.496258e-01    3.230688e-02
    2.764480e+01    6.752355e+02    6.061705e-03    3.511821e+06    7.594445e-09    1.721133e-14    2.282316e-09    4.017543e-10    5.600000e-01    6.496258e-01    3.334972e-02
    2.689790e+01    6.794736e+02    7.962325e-03    4.352172e+06    7.831995e-09    2.013132e-14    2.639158e-09    4.603942e-10    5.700000e-01    6.496258e-01    3.461421e-02
    2.613565e+01    6.862198e+02    1.038023e-02    5.331924e+06    8.097980e-09    2.349385e-14    3.034982e-09    5.249325e-10    5.800000e-01    6.496258e-01    3.612278e-02
    2.535880e+01    6.953664e+02    1.342865e-02    6.458133e+06    8.392165e-09    2.734764e-14    3.469362e-09    5.951930e-10    5.900000e-01    6.496258e-01    3.789438e-02
    2.456859e+01    7.066986e+02    1.723669e-02    7.735148e+06    8.713355e-09    3.174156e-14    3.940525e-09    6.707800e-10    6.000000e-01    6.496258e-01    3.994392e-02
    2.376721e+01    7.199194e+02    2.194916e-02    9.164784e+06    9.059290e-09    3.672326e-14    4.445216e-09    7.510695e-10    6.100000e-01    6.496258e-01    4.228199e-02
    2.295798e+01    7.346838e+02    2.772577e-02    1.074685e+07    9.426625e-09    4.233765e-14    4.978676e-09    8.352105e-10    6.200000e-01    6.496258e-01    4.491497e-02
    2.214492e+01    7.506137e+02    3.473959e-02    1.247976e+07    9.810990e-09    4.862548e-14    5.534750e-09    9.221530e-10    6.300000e-01    6.496258e-01    4.784543e-02
    2.133251e+01    7.673211e+02    4.317520e-02    1.436119e+07    1.020719e-08    5.562190e-14    6.106130e-09    1.010695e-09    6.400000e-01    6.496258e-01    5.107250e-02
    2.052510e+01    7.844184e+02    5.322615e-02    1.638844e+07    1.060945e-08    6.335545e-14    6.684760e-09    1.099546e-09    6.500000e-01    6.496258e-01    5.459236e-02
    1.972670e+01    8.015294e+02    6.509200e-02    1.855860e+07    1.101177e-08    7.184720e-14    7.262265e-09    1.187409e-09    6.600000e-01    6.496258e-01    5.839864e-02
    1.894086e+01    8.182988e+02    7.897480e-02    2.086840e+07    1.140826e-08    8.111055e-14    7.830480e-09    1.273048e-09    6.700000e-01    6.496258e-01    6.248277e-02
    1.817059e+01    8.344012e+02    9.507565e-02    2.331399e+07    1.179348e-08    9.115145e-14    8.381915e-09    1.355365e-09    6.800000e-01    6.496258e-01    6.683429e-02
    1.741849e+01    8.495515e+02    1.135909e-01    2.589062e+07    1.216275e-08    1.019687e-13    8.910115e-09    1.433447e-09    6.900000e-01    6.496258e-01    7.144111e-02
    1.668682e+01    8.635118e+02    1.347085e-01    2.859247e+07    1.251230e-08    1.135551e-13    9.409930e-09    1.506599e-09    7.000000e-01    6.496258e-01    7.628978e-02
    1.597750e+01    8.760971e+02    1.586048e-01    3.141249e+07    1.283936e-08    1.258987e-13    9.877635e-09    1.574355e-09    7.100000e-01    6.496258e-01    8.136583e-02
    1.529221e+01    8.871775e+02    1.854425e-01    3.434251e+07    1.314218e-08    1.389835e-13    1.031092e-08    1.636468e-09    7.200000e-01    6.496258e-01    8.665405e-02
    1.463232e+01    8.966775e+02    2.153676e-01    3.737335e+07    1.341997e-08    1.527915e-13    1.070877e-08    1.692886e-09    7.300000e-01    6.496258e-01    9.213882e-02
    1.399892e+01    9.045709e+02    2.485093e-01    4.049514e+07    1.367271e-08    1.673029e-13    1.107129e-08    1.743719e-09    7.400000e-01    6.496258e-01    9.780440e-02
    1.339281e+01    9.108759e+02    2.849793e-01    4.369761e+07    1.390105e-08    1.824978e-13    1.139948e-08    1.789203e-09    7.500000e-01    6.496258e-01    1.036353e-01
    1.281446e+01    9.156466e+02    3.248716e-01    4.697038e+07    1.410613e-08    1.983570e-13    1.169501e-08    1.829666e-09    7.600000e-01    6.496258e-01    1.096163e-01
    1.226401e+01    9.189644e+02    3.682637e-01    5.030330e+07    1.428943e-08    2.148622e-13    1.196004e-08    1.865488e-09    7.700000e-01    6.496258e-01    1.157330e-01
    1.174135e+01    9.209304e+02    4.152178e-01    5.368672e+07    1.445264e-08    2.319967e-13    1.219694e-08    1.897084e-09    7.800000e-01    6.496258e-01    1.219717e-01
    1.124606e+01    9.216595e+02    4.657821e-01    5.711155e+07    1.459754e-08    2.497458e-13    1.240826e-08    1.924873e-09    7.900000e-01    6.496258e-01    1.283197e-01
    1.077753e+01    9.212704e+02    5.199925e-01    6.056959e+07    1.472590e-08    2.680970e-13    1.259654e-08    1.949266e-09    8.000000e-01    6.496258e-01    1.347651e-01
    1.033494e+01    9.198830e+02    5.778735e-01    6.405340e+07    1.483949e-08    2.870397e-13    1.276422e-08    1.970655e-09    8.100000e-01    6.496258e-01    1.412973e-01
    9.917311e+00    9.176163e+02    6.394420e-01    6.755642e+07    1.493993e-08    3.065657e-13    1.291362e-08    1.989401e-09    8.200000e-01    6.496258e-01    1.479065e-01
    9.523568e+00    9.145805e+02    7.047065e-01    7.107298e+07    1.502877e-08    3.266687e-13    1.304689e-08    2.005837e-09    8.300000e-01    6.496258e-01    1.545838e-01
    9.152570e+00    9.108802e+02    7.736685e-01    7.459815e+07    1.510741e-08    3.473446e-13    1.316599e-08    2.020263e-09    8.400000e-01    6.496258e-01    1.613215e-01
    8.803121e+00    9.066103e+02    8.463260e-01    7.812784e+07    1.517710e-08    3.685912e-13    1.327267e-08    2.032943e-09    8.500000e-01    6.496258e-01    1.681125e-01
    8.474019e+00    9.018560e+02    9.226720e-01    8.165853e+07    1.523896e-08    3.904078e-13    1.336851e-08    2.044114e-09    8.600000e-01    6.496258e-01    1.749506e-01
    8.164062e+00    8.966944e+02    1.002697e+00    8.518736e+07    1.529400e-08    4.127956e-13    1.345489e-08    2.053981e-09    8.700000e-01    6.496258e-01    1.818303e-01
    7.872071e+00    8.911923e+02    1.086389e+00    8.871195e+07    1.534308e-08    4.357573e-13    1.353304e-08    2.062724e-09    8.800000e-01    6.496258e-01    1.887470e-01
    7.596915e+00    8.854087e+02    1.173735e+00    9.223036e+07    1.538699e-08    4.592966e-13    1.360401e-08    2.070497e-09    8.900000e-01    6.496258e-01    1.956963e-01
    7.337497e+00    8.793952e+02    1.264719e+00    9.574109e+07    1.542637e-08    4.834191e-13    1.366875e-08    2.077436e-09    9.000000e-01    6.496258e-01    2.026746e-01
    7.092776e+00    8.731962e+02    1.359328e+00    9.924293e+07    1.546183e-08    5.081310e-13    1.372805e-08    2.083655e-09    9.100000e-01    6.496258e-01    2.096787e-01
    6.861769e+00    8.668492e+02    1.457543e+00    1.027349e+08    1.549386e-08    5.334400e-13    1.378261e-08    2.089253e-09    9.200000e-01    6.496258e-01    2.167058e-01
    6.643549e+00    8.603866e+02    1.559348e+00    1.062162e+08    1.552289e-08    5.593540e-13    1.383304e-08    2.094315e-09    9.300000e-01    6.496258e-01    2.237534e-01
    6.437243e+00    8.538357e+02    1.664729e+00    1.096863e+08    1.554931e-08    5.858830e-13    1.387985e-08    2.098914e-09    9.400000e-01    6.496258e-01    2.308196e-01
    6.242045e+00    8.472204e+02    1.773668e+00    1.131449e+08    1.557343e-08    6.130370e-13    1.392351e-08    2.103113e-09    9.500000e-01    6.496258e-01    2.379024e-01
    6.057193e+00    8.405595e+02    1.886150e+00    1.165916e+08    1.559555e-08    6.408265e-13    1.396437e-08    2.106963e-09    9.600000e-01    6.496258e-01    2.450002e-01
    5.881986e+00    8.338687e+02    2.002158e+00    1.200262e+08    1.561588e-08    6.692640e-13    1.400279e-08    2.110511e-09    9.700000e-01    6.496258e-01    2.521118e-01
    5.715771e+00    8.271630e+02    2.121678e+00    1.234486e+08    1.563465e-08    6.983615e-13    1.403904e-08    2.113794e-09    9.800000e-01    6.496258e-01    2.592359e-01
    5.557944e+00    8.204531e+02    2.244693e+00    1.268587e+08    1.565204e-08    7.281320e-13    1.407338e-08    2.116847e-09    9.900000e-01    6.496258e-01    2.663715e-01
    5.407944e+00    8.137480e+02    2.371191e+00    1.302566e+08    1.566820e-08    7.585895e-13    1.410602e-08    2.119697e-09    1.000000e+00    6.496258e-01    2.735177e-01
    5.265250e+00    8.070552e+02    2.501154e+00    1.336421e+08    1.568326e-08    7.897485e-13    1.413715e-08    2.122369e-09    1.010000e+00    6.496258e-01    2.806738e-01
    5.129385e+00    8.003807e+02    2.634570e+00    1.370153e+08    1.569734e-08    8.216235e-13    1.416691e-08    2.124882e-09    1.020000e+00    6.496258e-01    2.878391e-01
    4.999903e+00    7.937299e+02    2.771424e+00    1.403762e+08    1.571054e-08    8.542305e-13    1.419545e-08    2.127256e-09    1.030000e+00    6.496258e-01    2.950131e-01
    4.876395e+00    7.871061e+02    2.911702e+00    1.437249e+08    1.572295e-08    8.875855e-13    1.422290e-08    2.129505e-09    1.040000e+00    6.496258e-01    3.021952e-01
    4.758484e+00    7.805126e+02    3.055391e+00    1.470614e+08    1.573464e-08    9.217050e-13    1.424935e-08    2.131643e-09    1.050000e+00    6.496258e-01    3.093851e-01
    4.645815e+00    7.739518e+02    3.202478e+00    1.503858e+08    1.574568e-08    9.566065e-13    1.427489e-08    2.133680e-09    1.060000e+00    6.496258e-01    3.165824e-01
    4.538066e+00    7.674252e+02    3.352949e+00    1.536981e+08    1.575613e-08    9.923085e-13    1.429961e-08    2.135627e-09    1.070000e+00    6.496258e-01    3.237868e-01
    4.434936e+00    7.609344e+02    3.506792e+00    1.569982e+08    1.576604e-08    1.028828e-12    1.432357e-08    2.137492e-09    1.080000e+00    6.496258e-01    3.309980e-01
    4.336143e+00    7.544797e+02    3.663992e+00    1.602863e+08    1.577545e-08    1.066185e-12    1.434685e-08    2.139283e-09    1.090000e+00    6.496258e-01    3.382159e-01
    4.241434e+00    7.480620e+02    3.824539e+00    1.635625e+08    1.578441e-08    1.104400e-12    1.436948e-08    2.141006e-09    1.100000e+00    6.496258e-01    3.454402e-01
    4.150566e+00    7.416814e+02    3.988419e+00    1.668266e+08    1.579294e-08    1.143492e-12    1.439152e-08    2.142667e-09    1.110000e+00    6.496258e-01    3.526708e-01
    4.063317e+00    7.353378e+02    4.155619e+00    1.700787e+08    1.580107e-08    1.183482e-12    1.441301e-08    2.144270e-09    1.120000e+00    6.496258e-01    3.599075e-01
    3.979483e+00    7.290313e+02    4.326126e+00    1.733188e+08    1.580885e-08    1.224391e-12    1.443399e-08    2.145820e-09    1.130000e+00    6.496258e-01    3.671503e-01
    3.898869e+00    7.227611e+02    4.499929e+00    1.765469e+08    1.581628e-08    1.266242e-12    1.445450e-08    2.147321e-09    1.140000e+00    6.496258e-01    3.743990e-01
    3.821300e+00    7.165274e+02    4.677015e+00    1.797629e+08    1.582341e-08    1.309058e-12    1.447455e-08    2.148777e-09    1.150000e+00    6.496258e-01    3.816537e-01
    3.746606e+00    7.103290e+02    4.857371e+00    1.829668e+08    1.583023e-08    1.352861e-12    1.449419e-08    2.150190e-09    1.160000e+00    6.496258e-01    3.889141e-01
    3.674635e+00    7.041659e+02    5.040985e+00    1.861587e+08    1.583677e-08    1.397677e-12    1.451342e-08    2.151563e-09    1.170000e+00    6.496258e-01    3.961803e-01
    3.605245e+00    6.980373e+02    5.227840e+00    1.893384e+08    1.584304e-08    1.443529e-12    1.453229e-08    2.152898e-09    1.180000e+00    6.496258e-01    4.034523e-01
    3.538297e+00    6.919423e+02    5.417930e+00    1.925059e+08    1.584907e-08    1.490443e-12    1.455080e-08    2.154198e-09    1.190000e+00    6.496258e-01    4.107300e-01
    3.473665e+00    6.858803e+02    5.611240e+00    1.956611e+08    1.585486e-08    1.538446e-12    1.456898e-08    2.155465e-09    1.200000e+00    6.496258e-01    4.180134e-01
    3.411233e+00    6.798510e+02    5.807760e+00    1.988041e+08    1.586043e-08    1.587564e-12    1.458684e-08    2.156700e-09    1.210000e+00    6.496258e-01    4.253025e-01
    3.350894e+00    6.738532e+02    6.007470e+00    2.019347e+08    1.586579e-08    1.637825e-12    1.460439e-08    2.157906e-09    1.220000e+00    6.496258e-01    4.325972e-01
    3.292540e+00    6.678865e+02    6.210365e+00    2.050528e+08    1.587093e-08    1.689258e-12    1.462166e-08    2.159082e-09    1.230000e+00    6.496258e-01    4.398977e-01
    3.236079e+00    6.619502e+02    6.416425e+00    2.081585e+08    1.587590e-08    1.741892e-12    1.463866e-08    2.160233e-09    1.240000e+00    6.496258e-01    4.472038e-01
    3.181419e+00    6.560435e+02    6.625640e+00    2.112516e+08    1.588068e-08    1.795757e-12    1.465540e-08    2.161358e-09    1.250000e+00    6.496258e-01    4.545157e-01
    3.128474e+00    6.501659e+02    6.838000e+00    2.143320e+08    1.588528e-08    1.850885e-12    1.467188e-08    2.162458e-09    1.260000e+00    6.496258e-01    4.618333e-01
    3.077166e+00    6.443164e+02    7.053485e+00    2.173997e+08    1.588971e-08    1.907308e-12    1.468812e-08    2.163534e-09    1.270000e+00    6.496258e-01    4.691566e-01
    3.027418e+00    6.384949e+02    7.272090e+00    2.204545e+08    1.589399e-08    1.965057e-12    1.470412e-08    2.164588e-09    1.280000e+00    6.496258e-01    4.764857e-01
    2.979161e+00    6.327005e+02    7.493795e+00    2.234965e+08    1.589810e-08    2.024168e-12    1.471991e-08    2.165621e-09    1.290000e+00    6.496258e-01    4.838205e-01
    2.932329e+00    6.269326e+02    7.718590e+00    2.265254e+08    1.590207e-08    2.084675e-12    1.473549e-08    2.166633e-09    1.300000e+00    6.496258e-01    4.911612e-01
    2.886858e+00    6.211907e+02    7.946460e+00    2.295414e+08    1.590590e-08    2.146614e-12    1.475086e-08    2.167626e-09    1.310000e+00    6.496258e-01    4.985077e-01
    2.842692e+00    6.154745e+02    8.177390e+00    2.325442e+08    1.590959e-08    2.210022e-12    1.476603e-08    2.168599e-09    1.320000e+00    6.496258e-01    5.058601e-01
    2.799772e+00    6.097831e+02    8.411370e+00    2.355338e+08    1.591315e-08    2.274937e-12    1.478102e-08    2.169554e-09    1.330000e+00    6.496258e-01    5.132183e-01
    2.758046e+00    6.041162e+02    8.648385e+00    2.385100e+08    1.591659e-08    2.341398e-12    1.479582e-08    2.170492e-09    1.340000e+00    6.496258e-01    5.205825e-01
    2.717465e+00    5.984733e+02    8.888420e+00    2.414728e+08    1.591991e-08    2.409446e-12    1.481044e-08    2.171412e-09    1.350000e+00    6.496258e-01    5.279527e-01
    2.677982e+00    5.928539e+02    9.131460e+00    2.444221e+08    1.592310e-08    2.479122e-12    1.482489e-08    2.172316e-09    1.360000e+00    6.496258e-01    5.353288e-01
    2.639554e+00    5.872577e+02    9.377490e+00    2.473579e+08    1.592618e-08    2.550468e-12    1.483918e-08    2.173205e-09    1.370000e+00    6.496258e-01    5.427109e-01
    2.602138e+00    5.816843e+02    9.626500e+00    2.502800e+08    1.592915e-08    2.623530e-12    1.485331e-08    2.174078e-09    1.380000e+00    6.496258e-01    5.500992e-01
    2.565692e+00    5.761331e+02    9.878475e+00    2.531883e+08    1.593203e-08    2.698351e-12    1.486729e-08    2.174937e-09    1.390000e+00    6.496258e-01    5.574935e-01
    2.530180e+00    5.706039e+02    1.013340e+01    2.560828e+08    1.593479e-08    2.774979e-12    1.488111e-08    2.175782e-09    1.400000e+00    6.496258e-01    5.648939e-01
    2.495568e+00    5.650962e+02    1.039126e+01    2.589635e+08    1.593746e-08    2.853462e-12    1.489479e-08    2.176613e-09    1.410000e+00    6.496258e-01    5.723006e-01
    2.461818e+00    5.596100e+02    1.065203e+01    2.618302e+08    1.594003e-08    2.933850e-12    1.490834e-08    2.177431e-09    1.420000e+00    6.496258e-01    5.797134e-01
    2.428900e+00    5.541445e+02    1.091572e+01    2.646827e+08    1.594251e-08    3.016193e-12    1.492174e-08    2.178236e-09    1.430000e+00    6.496258e-01    5.871325e-01
    2.396784e+00    5.486999e+02    1.118229e+01    2.675213e+08    1.594489e-08    3.100545e-12    1.493501e-08    2.179029e-09    1.440000e+00    6.496258e-01    5.945579e-01
    2.365439e+00    5.432755e+02    1.145175e+01    2.703455e+08    1.594720e-08    3.186958e-12    1.494817e-08    2.179809e-09    1.450000e+00    6.496258e-01    6.019896e-01
    2.334837e+00    5.378712e+02    1.172406e+01    2.731554e+08    1.594942e-08    3.275491e-12    1.496119e-08    2.180578e-09    1.460000e+00    6.496258e-01    6.094277e-01
    2.304954e+00    5.324864e+02    1.199921e+01    2.759510e+08    1.595156e-08    3.366200e-12    1.497409e-08    2.181336e-09    1.470000e+00    6.496258e-01    6.168722e-01
    2.275762e+00    5.271215e+02    1.227721e+01    2.787322e+08    1.595363e-08    3.459144e-12    1.498688e-08    2.182083e-09    1.480000e+00    6.496258e-01    6.243232e-01
    2.247238e+00    5.217761e+02    1.255801e+01    2.814988e+08    1.595561e-08    3.554385e-12    1.499955e-08    2.182820e-09    1.490000e+00    6.496258e-01    6.317806e-01
