# GF180MCU-D nfet_03v3 gm/ID Processed Lookup Table
# Corner: fs
# Temperature: -40C
# W = 2.0 um
# L = 1 um (1000 nm)
# Columns: gm/id [1/V]  gm/gds [V/V]  id/W [A/m]  ft [Hz]  Cgg/W [F/m]  Cgd/W [F/m]  Cgs/W [F/m]  Cdb/W [F/m]  vgs [V]  vth [V]  vdsat [V]
# vdsat = BSIM saturation voltage (|VDS|_sat, positive); use for headroom / saturation / cascode-bias calculations
#           gm/id          gm/gds            id/W              ft           Cgg/W           Cgd/W           Cgs/W           Cdb/W             vgs             vth           vdsat
    3.508469e+01    3.509910e+02    1.148319e-04    5.217654e+05    1.228924e-09    1.069732e-16    7.828790e-12    3.257841e-12    4.200000e-01    6.821231e-01    3.462439e-02
    3.505181e+01    3.499720e+02    1.630724e-04    7.414799e+05    1.226907e-09    1.272743e-16    1.101581e-11    3.842289e-12    4.300000e-01    6.821231e-01    3.463210e-02
    3.497646e+01    3.487820e+02    2.314526e-04    1.051466e+06    1.225357e-09    1.513355e-16    1.478736e-11    4.529576e-12    4.400000e-01    6.821231e-01    3.464303e-02
    3.486200e+01    3.473979e+02    3.281939e-04    1.487299e+06    1.224348e-09    1.798354e-16    1.924902e-11    5.338080e-12    4.500000e-01    6.821231e-01    3.465849e-02
    3.470951e+01    3.457970e+02    4.647498e-04    2.097572e+06    1.223971e-09    2.135749e-16    2.452773e-11    6.289620e-12    4.600000e-01    6.821231e-01    3.468028e-02
    3.451837e+01    3.439587e+02    6.569955e-04    2.948032e+06    1.224336e-09    2.535009e-16    3.077596e-11    7.410010e-12    4.700000e-01    6.821231e-01    3.471093e-02
    3.428682e+01    3.418675e+02    9.268050e-04    4.126634e+06    1.225575e-09    3.007344e-16    3.817589e-11    8.729690e-12    4.800000e-01    6.821231e-01    3.475386e-02
    3.401239e+01    3.395155e+02    1.304117e-03    5.749509e+06    1.227843e-09    3.566032e-16    4.694398e-11    1.028433e-11    4.900000e-01    6.821231e-01    3.481375e-02
    3.369239e+01    3.369086e+02    1.829594e-03    7.967713e+06    1.231326e-09    4.226810e-16    5.733525e-11    1.211545e-11    5.000000e-01    6.821231e-01    3.489686e-02
    3.332439e+01    3.340703e+02    2.557996e-03    1.097437e+07    1.236240e-09    5.008315e-16    6.964750e-11    1.427097e-11    5.100000e-01    6.821231e-01    3.501153e-02
    3.290668e+01    3.310483e+02    3.562371e-03    1.501172e+07    1.242833e-09    5.932595e-16    8.422470e-11    1.680563e-11    5.200000e-01    6.821231e-01    3.516862e-02
    3.243866e+01    3.279192e+02    4.939183e-03    2.037721e+07    1.251392e-09    7.025665e-16    1.014598e-10    1.978132e-11    5.300000e-01    6.821231e-01    3.538207e-02
    3.192122e+01    3.247915e+02    6.814445e-03    2.742761e+07    1.262241e-09    8.318130e-16    1.217956e-10    2.326705e-11    5.400000e-01    6.821231e-01    3.566939e-02
    3.135679e+01    3.218063e+02    9.350945e-03    3.658020e+07    1.275737e-09    9.845860e-16    1.457247e-10    2.733860e-11    5.500000e-01    6.821231e-01    3.605204e-02
    3.074919e+01    3.191309e+02    1.275657e-02    4.830950e+07    1.292275e-09    1.165067e-15    1.737845e-10    3.207770e-11    5.600000e-01    6.821231e-01    3.655553e-02
    3.010305e+01    3.169482e+02    1.729370e-02    6.313828e+07    1.312277e-09    1.378102e-15    2.065504e-10    3.757044e-11    5.700000e-01    6.821231e-01    3.720924e-02
    2.942310e+01    3.154396e+02    2.328953e-02    8.162113e+07    1.336185e-09    1.629276e-15    2.446226e-10    4.390487e-11    5.800000e-01    6.821231e-01    3.804570e-02
    2.871315e+01    3.147619e+02    3.114684e-02    1.043179e+08    1.364445e-09    1.924965e-15    2.886060e-10    5.116755e-11    5.900000e-01    6.821231e-01    3.909945e-02
    2.797560e+01    3.150284e+02    4.135458e-02    1.317573e+08    1.397490e-09    2.272389e-15    3.390832e-10    5.943880e-11    6.000000e-01    6.821231e-01    4.040530e-02
    2.721130e+01    3.162903e+02    5.449690e-02    1.643896e+08    1.435710e-09    2.679639e-15    3.965782e-10    6.878715e-11    6.100000e-01    6.821231e-01    4.199649e-02
    2.642011e+01    3.185294e+02    7.125940e-02    2.025365e+08    1.479427e-09    3.155667e-15    4.615132e-10    7.926190e-11    6.200000e-01    6.821231e-01    4.390262e-02
    2.560194e+01    3.216622e+02    9.243105e-02    2.463463e+08    1.528850e-09    3.710240e-15    5.341580e-10    9.088610e-11    6.300000e-01    6.821231e-01    4.614804e-02
    2.475791e+01    3.255500e+02    1.189004e-01    2.957679e+08    1.584041e-09    4.353837e-15    6.145780e-10    1.036486e-10    6.400000e-01    6.821231e-01    4.875056e-02
    2.389107e+01    3.300183e+02    1.516464e-01    3.505529e+08    1.644880e-09    5.097490e-15    7.025830e-10    1.174972e-10    6.500000e-01    6.821231e-01    5.172098e-02
    2.300655e+01    3.348758e+02    1.917235e-01    4.102886e+08    1.711030e-09    5.952545e-15    7.976920e-10    1.323349e-10    6.600000e-01    6.821231e-01    5.506312e-02
    2.211119e+01    3.399295e+02    2.402430e-01    4.744525e+08    1.781929e-09    6.930375e-15    8.991100e-10    1.480174e-10    6.700000e-01    6.821231e-01    5.877445e-02
    2.121267e+01    3.449968e+02    2.983514e-01    5.424767e+08    1.856788e-09    8.042030e-15    1.005736e-09    1.643572e-10    6.800000e-01    6.821231e-01    6.284692e-02
    2.031879e+01    3.499127e+02    3.672065e-01    6.138080e+08    1.934620e-09    9.297865e-15    1.116200e-09    1.811304e-10    6.900000e-01    6.821231e-01    6.726807e-02
    1.943672e+01    3.545333e+02    4.479542e-01    6.879484e+08    2.014284e-09    1.070717e-14    1.228930e-09    1.980884e-10    7.000000e-01    6.821231e-01    7.202190e-02
    1.857266e+01    3.587380e+02    5.417055e-01    7.644786e+08    2.094557e-09    1.227781e-14    1.342241e-09    2.149729e-10    7.100000e-01    6.821231e-01    7.708986e-02
    1.773162e+01    3.624290e+02    6.495140e-01    8.430586e+08    2.174199e-09    1.401604e-14    1.454440e-09    2.315318e-10    7.200000e-01    6.821231e-01    8.245152e-02
    1.691752e+01    3.655331e+02    7.723575e-01    9.234199e+08    2.252039e-09    1.592625e-14    1.563930e-09    2.475342e-10    7.300000e-01    6.821231e-01    8.808524e-02
    1.613324e+01    3.680001e+02    9.111215e-01    1.005345e+09    2.327036e-09    1.801102e-14    1.669297e-09    2.627825e-10    7.400000e-01    6.821231e-01    9.396871e-02
    1.538081e+01    3.698023e+02    1.066589e+00    1.088648e+09    2.398328e-09    2.027113e-14    1.769381e-09    2.771215e-10    7.500000e-01    6.821231e-01    1.000794e-01
    1.466154e+01    3.709326e+02    1.239427e+00    1.173162e+09    2.465260e-09    2.270583e-14    1.863306e-09    2.904414e-10    7.600000e-01    6.821231e-01    1.063950e-01
    1.397617e+01    3.714026e+02    1.430194e+00    1.258723e+09    2.527395e-09    2.531300e-14    1.950496e-09    3.026778e-10    7.700000e-01    6.821231e-01    1.128937e-01
    1.332493e+01    3.712394e+02    1.639331e+00    1.345166e+09    2.584496e-09    2.808951e-14    2.030653e-09    3.138076e-10    7.800000e-01    6.821231e-01    1.195545e-01
    1.270767e+01    3.704807e+02    1.867169e+00    1.432321e+09    2.636509e-09    3.103155e-14    2.103727e-09    3.238430e-10    7.900000e-01    6.821231e-01    1.263576e-01
    1.212387e+01    3.691747e+02    2.113941e+00    1.520015e+09    2.683529e-09    3.413486e-14    2.169868e-09    3.328237e-10    8.000000e-01    6.821231e-01    1.332843e-01
    1.157274e+01    3.673731e+02    2.379785e+00    1.608075e+09    2.725761e-09    3.739504e-14    2.229378e-09    3.408098e-10    8.100000e-01    6.821231e-01    1.403173e-01
    1.105326e+01    3.651319e+02    2.664762e+00    1.696330e+09    2.763495e-09    4.080776e-14    2.282670e-09    3.478746e-10    8.200000e-01    6.821231e-01    1.474409e-01
    1.056424e+01    3.625060e+02    2.968859e+00    1.784617e+09    2.797067e-09    4.436892e-14    2.330220e-09    3.540987e-10    8.300000e-01    6.821231e-01    1.546406e-01
    1.010434e+01    3.595498e+02    3.292005e+00    1.872781e+09    2.826842e-09    4.807480e-14    2.372539e-09    3.595651e-10    8.400000e-01    6.821231e-01    1.619034e-01
    9.672140e+00    3.563136e+02    3.634083e+00    1.960682e+09    2.853188e-09    5.192210e-14    2.410143e-09    3.643557e-10    8.500000e-01    6.821231e-01    1.692178e-01
    9.266171e+00    3.528448e+02    3.994934e+00    2.048191e+09    2.876469e-09    5.590805e-14    2.443536e-09    3.685488e-10    8.600000e-01    6.821231e-01    1.765736e-01
    8.884935e+00    3.491861e+02    4.374372e+00    2.135194e+09    2.897028e-09    6.003040e-14    2.473194e-09    3.722171e-10    8.700000e-01    6.821231e-01    1.839616e-01
    8.526945e+00    3.453760e+02    4.772182e+00    2.221594e+09    2.915184e-09    6.428735e-14    2.499559e-09    3.754273e-10    8.800000e-01    6.821231e-01    1.913740e-01
    8.190741e+00    3.414480e+02    5.188135e+00    2.307303e+09    2.931230e-09    6.867765e-14    2.523035e-09    3.782395e-10    8.900000e-01    6.821231e-01    1.988038e-01
    7.874900e+00    3.374316e+02    5.621995e+00    2.392253e+09    2.945430e-09    7.320060e-14    2.543986e-09    3.807069e-10    9.000000e-01    6.821231e-01    2.062450e-01
    7.578072e+00    3.333524e+02    6.073505e+00    2.476381e+09    2.958018e-09    7.785590e-14    2.562734e-09    3.828769e-10    9.100000e-01    6.821231e-01    2.136924e-01
    7.298955e+00    3.292320e+02    6.542415e+00    2.559641e+09    2.969202e-09    8.264355e-14    2.579565e-09    3.847906e-10    9.200000e-01    6.821231e-01    2.211414e-01
    7.036315e+00    3.250888e+02    7.028475e+00    2.641994e+09    2.979166e-09    8.756420e-14    2.594732e-09    3.864836e-10    9.300000e-01    6.821231e-01    2.285884e-01
    6.789007e+00    3.209383e+02    7.531425e+00    2.723409e+09    2.988069e-09    9.261860e-14    2.608451e-09    3.879869e-10    9.400000e-01    6.821231e-01    2.360299e-01
    6.555948e+00    3.167934e+02    8.051010e+00    2.803864e+09    2.996050e-09    9.780805e-14    2.620913e-09    3.893273e-10    9.500000e-01    6.821231e-01    2.434631e-01
    6.336133e+00    3.126650e+02    8.586980e+00    2.883344e+09    3.003229e-09    1.031340e-13    2.632282e-09    3.905274e-10    9.600000e-01    6.821231e-01    2.508858e-01
    6.128619e+00    3.085616e+02    9.139090e+00    2.961836e+09    3.009710e-09    1.085983e-13    2.642701e-09    3.916070e-10    9.700000e-01    6.821231e-01    2.582957e-01
    5.932539e+00    3.044904e+02    9.707100e+00    3.039338e+09    3.015583e-09    1.142029e-13    2.652292e-09    3.925826e-10    9.800000e-01    6.821231e-01    2.656914e-01
    5.747090e+00    3.004571e+02    1.029077e+01    3.115845e+09    3.020925e-09    1.199501e-13    2.661159e-09    3.934686e-10    9.900000e-01    6.821231e-01    2.730713e-01
    5.571522e+00    2.964661e+02    1.088986e+01    3.191359e+09    3.025803e-09    1.258424e-13    2.669395e-09    3.942772e-10    1.000000e+00    6.821231e-01    2.804344e-01
    5.405149e+00    2.925208e+02    1.150415e+01    3.265882e+09    3.030273e-09    1.318826e-13    2.677076e-09    3.950186e-10    1.010000e+00    6.821231e-01    2.877795e-01
    5.247342e+00    2.886242e+02    1.213342e+01    3.339426e+09    3.034387e-09    1.380734e-13    2.684270e-09    3.957017e-10    1.020000e+00    6.821231e-01    2.951059e-01
    5.097510e+00    2.847780e+02    1.277745e+01    3.411993e+09    3.038184e-09    1.444181e-13    2.691033e-09    3.963341e-10    1.030000e+00    6.821231e-01    3.024130e-01
    4.955117e+00    2.809837e+02    1.343601e+01    3.483595e+09    3.041702e-09    1.509198e-13    2.697417e-09    3.969221e-10    1.040000e+00    6.821231e-01    3.097002e-01
    4.819662e+00    2.772422e+02    1.410892e+01    3.554242e+09    3.044973e-09    1.575821e-13    2.703462e-09    3.974712e-10    1.050000e+00    6.821231e-01    3.169672e-01
    4.690687e+00    2.735538e+02    1.479594e+01    3.623941e+09    3.048023e-09    1.644084e-13    2.709206e-09    3.979860e-10    1.060000e+00    6.821231e-01    3.242137e-01
    4.567772e+00    2.699189e+02    1.549691e+01    3.692709e+09    3.050876e-09    1.714026e-13    2.714682e-09    3.984706e-10    1.070000e+00    6.821231e-01    3.314395e-01
    4.450522e+00    2.663372e+02    1.621160e+01    3.760553e+09    3.053552e-09    1.785686e-13    2.719915e-09    3.989284e-10    1.080000e+00    6.821231e-01    3.386443e-01
    4.338582e+00    2.628088e+02    1.693985e+01    3.827491e+09    3.056069e-09    1.859104e-13    2.724931e-09    3.993623e-10    1.090000e+00    6.821231e-01    3.458281e-01
    4.231612e+00    2.593328e+02    1.768144e+01    3.893528e+09    3.058443e-09    1.934321e-13    2.729749e-09    3.997748e-10    1.100000e+00    6.821231e-01    3.529910e-01
    4.129312e+00    2.559089e+02    1.843620e+01    3.958683e+09    3.060685e-09    2.011384e-13    2.734388e-09    4.001682e-10    1.110000e+00    6.821231e-01    3.601328e-01
    4.031394e+00    2.525362e+02    1.920396e+01    4.022964e+09    3.062809e-09    2.090336e-13    2.738863e-09    4.005442e-10    1.120000e+00    6.821231e-01    3.672537e-01
    3.937593e+00    2.492140e+02    1.998452e+01    4.086385e+09    3.064823e-09    2.171225e-13    2.743189e-09    4.009045e-10    1.130000e+00    6.821231e-01    3.743537e-01
    3.847668e+00    2.459414e+02    2.077772e+01    4.148956e+09    3.066738e-09    2.254097e-13    2.747377e-09    4.012504e-10    1.140000e+00    6.821231e-01    3.814330e-01
    3.761390e+00    2.427175e+02    2.158338e+01    4.210689e+09    3.068561e-09    2.339005e-13    2.751439e-09    4.015834e-10    1.150000e+00    6.821231e-01    3.884917e-01
    3.678554e+00    2.395416e+02    2.240133e+01    4.271599e+09    3.070299e-09    2.425999e-13    2.755382e-09    4.019044e-10    1.160000e+00    6.821231e-01    3.955300e-01
    3.598959e+00    2.364124e+02    2.323141e+01    4.331691e+09    3.071958e-09    2.515133e-13    2.759217e-09    4.022143e-10    1.170000e+00    6.821231e-01    4.025479e-01
    3.522432e+00    2.333295e+02    2.407345e+01    4.390983e+09    3.073543e-09    2.606462e-13    2.762950e-09    4.025141e-10    1.180000e+00    6.821231e-01    4.095458e-01
    3.448798e+00    2.302913e+02    2.492730e+01    4.449481e+09    3.075061e-09    2.700042e-13    2.766589e-09    4.028044e-10    1.190000e+00    6.821231e-01    4.165238e-01
    3.377902e+00    2.272973e+02    2.579279e+01    4.507197e+09    3.076514e-09    2.795931e-13    2.770138e-09    4.030859e-10    1.200000e+00    6.821231e-01    4.234821e-01
    3.309599e+00    2.243464e+02    2.666976e+01    4.564140e+09    3.077908e-09    2.894191e-13    2.773604e-09    4.033591e-10    1.210000e+00    6.821231e-01    4.304210e-01
    3.243752e+00    2.214377e+02    2.755805e+01    4.620322e+09    3.079244e-09    2.994884e-13    2.776991e-09    4.036247e-10    1.220000e+00    6.821231e-01    4.373407e-01
    3.180236e+00    2.185704e+02    2.845753e+01    4.675752e+09    3.080528e-09    3.098072e-13    2.780303e-09    4.038830e-10    1.230000e+00    6.821231e-01    4.442413e-01
    3.118928e+00    2.157434e+02    2.936804e+01    4.730439e+09    3.081761e-09    3.203824e-13    2.783546e-09    4.041344e-10    1.240000e+00    6.821231e-01    4.511232e-01
    3.059722e+00    2.129560e+02    3.028942e+01    4.784394e+09    3.082947e-09    3.312205e-13    2.786721e-09    4.043794e-10    1.250000e+00    6.821231e-01    4.579866e-01
    3.002511e+00    2.102074e+02    3.122153e+01    4.837626e+09    3.084088e-09    3.423288e-13    2.789833e-09    4.046184e-10    1.260000e+00    6.821231e-01    4.648316e-01
    2.947198e+00    2.074965e+02    3.216423e+01    4.890140e+09    3.085185e-09    3.537144e-13    2.792886e-09    4.048515e-10    1.270000e+00    6.821231e-01    4.716587e-01
    2.893693e+00    2.048229e+02    3.311737e+01    4.941950e+09    3.086243e-09    3.653849e-13    2.795881e-09    4.050792e-10    1.280000e+00    6.821231e-01    4.784680e-01
    2.841909e+00    2.021854e+02    3.408081e+01    4.993061e+09    3.087261e-09    3.773478e-13    2.798821e-09    4.053016e-10    1.290000e+00    6.821231e-01    4.852597e-01
    2.791767e+00    1.995836e+02    3.505442e+01    5.043485e+09    3.088242e-09    3.896111e-13    2.801708e-09    4.055191e-10    1.300000e+00    6.821231e-01    4.920341e-01
    2.743190e+00    1.970166e+02    3.603804e+01    5.093227e+09    3.089187e-09    4.021830e-13    2.804546e-09    4.057318e-10    1.310000e+00    6.821231e-01    4.987914e-01
    2.696109e+00    1.944837e+02    3.703156e+01    5.142296e+09    3.090099e-09    4.150720e-13    2.807335e-09    4.059400e-10    1.320000e+00    6.821231e-01    5.055320e-01
    2.650454e+00    1.919840e+02    3.803482e+01    5.190700e+09    3.090978e-09    4.282867e-13    2.810079e-09    4.061438e-10    1.330000e+00    6.821231e-01    5.122560e-01
    2.606165e+00    1.895172e+02    3.904770e+01    5.238445e+09    3.091826e-09    4.418362e-13    2.812779e-09    4.063436e-10    1.340000e+00    6.821231e-01    5.189637e-01
    2.563181e+00    1.870824e+02    4.007007e+01    5.285542e+09    3.092645e-09    4.557298e-13    2.815436e-09    4.065392e-10    1.350000e+00    6.821231e-01    5.256553e-01
    2.521447e+00    1.846791e+02    4.110180e+01    5.331997e+09    3.093434e-09    4.699768e-13    2.818051e-09    4.067312e-10    1.360000e+00    6.821231e-01    5.323310e-01
    2.480910e+00    1.823065e+02    4.214275e+01    5.377817e+09    3.094197e-09    4.845872e-13    2.820629e-09    4.069193e-10    1.370000e+00    6.821231e-01    5.389912e-01
    2.441519e+00    1.799644e+02    4.319280e+01    5.423011e+09    3.094932e-09    4.995712e-13    2.823168e-09    4.071040e-10    1.380000e+00    6.821231e-01    5.456360e-01
    2.403227e+00    1.776517e+02    4.425182e+01    5.467584e+09    3.095642e-09    5.149390e-13    2.825670e-09    4.072853e-10    1.390000e+00    6.821231e-01    5.522658e-01
    2.365991e+00    1.753682e+02    4.531970e+01    5.511545e+09    3.096328e-09    5.307020e-13    2.828138e-09    4.074633e-10    1.400000e+00    6.821231e-01    5.588806e-01
    2.329765e+00    1.731132e+02    4.639631e+01    5.554896e+09    3.096989e-09    5.468710e-13    2.830571e-09    4.076382e-10    1.410000e+00    6.821231e-01    5.654808e-01
    2.294513e+00    1.708863e+02    4.748151e+01    5.597652e+09    3.097629e-09    5.634575e-13    2.832972e-09    4.078100e-10    1.420000e+00    6.821231e-01    5.720665e-01
    2.260194e+00    1.686868e+02    4.857521e+01    5.639813e+09    3.098245e-09    5.804735e-13    2.835341e-09    4.079789e-10    1.430000e+00    6.821231e-01    5.786381e-01
    2.226773e+00    1.665144e+02    4.967726e+01    5.681388e+09    3.098842e-09    5.979315e-13    2.837679e-09    4.081450e-10    1.440000e+00    6.821231e-01    5.851957e-01
    2.194217e+00    1.643685e+02    5.078755e+01    5.722384e+09    3.099417e-09    6.158440e-13    2.839987e-09    4.083084e-10    1.450000e+00    6.821231e-01    5.917396e-01
    2.162490e+00    1.622486e+02    5.190600e+01    5.762806e+09    3.099972e-09    6.342240e-13    2.842267e-09    4.084692e-10    1.460000e+00    6.821231e-01    5.982700e-01
    2.131565e+00    1.601544e+02    5.303245e+01    5.802664e+09    3.100509e-09    6.530850e-13    2.844520e-09    4.086273e-10    1.470000e+00    6.821231e-01    6.047871e-01
    2.101410e+00    1.580853e+02    5.416680e+01    5.841961e+09    3.101026e-09    6.724410e-13    2.846745e-09    4.087831e-10    1.480000e+00    6.821231e-01    6.112911e-01
    2.071996e+00    1.560409e+02    5.530895e+01    5.880701e+09    3.101526e-09    6.923065e-13    2.848944e-09    4.089365e-10    1.490000e+00    6.821231e-01    6.177823e-01
    2.043302e+00    1.540209e+02    5.645875e+01    5.918898e+09    3.102009e-09    7.126970e-13    2.851118e-09    4.090876e-10    1.500000e+00    6.821231e-01    6.242609e-01
