# GF180MCU-D nfet_03v3 gm/ID Processed Lookup Table
# Corner: fs
# Temperature: -40C
# W = 2.0 um
# L = 3 um (3000 nm)
# Columns: gm/id [1/V]  gm/gds [V/V]  id/W [A/m]  ft [Hz]  Cgg/W [F/m]  Cgd/W [F/m]  Cgs/W [F/m]  Cdb/W [F/m]  vgs [V]  vth [V]  vdsat [V]
# vdsat = BSIM saturation voltage (|VDS|_sat, positive); use for headroom / saturation / cascode-bias calculations
#           gm/id          gm/gds            id/W              ft           Cgg/W           Cgd/W           Cgs/W           Cdb/W             vgs             vth           vdsat
    3.460127e+01    6.093706e+02    6.670360e-05    9.678372e+04    3.795414e-09    7.207920e-16    7.340850e-11    1.901174e-11    4.100000e-01    6.559844e-01    2.975277e-02
    3.456364e+01    6.067324e+02    9.426885e-05    1.366236e+05    3.795613e-09    8.524630e-16    9.170495e-11    2.235290e-11    4.200000e-01    6.559844e-01    2.976724e-02
    3.445862e+01    6.036867e+02    1.331294e-04    1.922212e+05    3.798314e-09    1.007827e-15    1.133304e-10    2.628003e-11    4.300000e-01    6.559844e-01    2.978762e-02
    3.429327e+01    6.002001e+02    1.877548e-04    2.693921e+05    3.803953e-09    1.191153e-15    1.389008e-10    3.089667e-11    4.400000e-01    6.559844e-01    2.981622e-02
    3.407127e+01    5.962496e+02    2.642809e-04    3.758388e+05    3.813051e-09    1.407488e-15    1.691420e-10    3.632328e-11    4.500000e-01    6.559844e-01    2.985621e-02
    3.379423e+01    5.918314e+02    3.710708e-04    5.216156e+05    3.826211e-09    1.662785e-15    2.049006e-10    4.269890e-11    4.600000e-01    6.559844e-01    2.991185e-02
    3.346252e+01    5.869696e+02    5.194285e-04    7.196246e+05    3.844134e-09    1.964042e-15    2.471557e-10    5.018255e-11    4.700000e-01    6.559844e-01    2.998884e-02
    3.307616e+01    5.817253e+02    7.244950e-04    9.861124e+05    3.867624e-09    2.319471e-15    2.970268e-10    5.895435e-11    4.800000e-01    6.559844e-01    3.009468e-02
    3.263557e+01    5.762075e+02    1.006350e-03    1.341109e+06    3.897591e-09    2.738651e-15    3.557793e-10    6.921565e-11    4.900000e-01    6.559844e-01    3.023907e-02
    3.214215e+01    5.705808e+02    1.391341e-03    1.808749e+06    3.935049e-09    3.232718e-15    4.248237e-10    8.118865e-11    5.000000e-01    6.559844e-01    3.043432e-02
    3.159871e+01    5.650714e+02    1.913662e-03    2.417408e+06    3.981116e-09    3.814530e-15    5.057090e-10    9.511440e-11    5.100000e-01    6.559844e-01    3.069571e-02
    3.100955e+01    5.599593e+02    2.617192e-03    3.199577e+06    4.036999e-09    4.498838e-15    6.001045e-10    1.112491e-10    5.200000e-01    6.559844e-01    3.104169e-02
    3.038021e+01    5.555697e+02    3.557606e-03    4.191449e+06    4.103973e-09    5.302435e-15    7.097685e-10    1.298582e-10    5.300000e-01    6.559844e-01    3.149388e-02
    2.971684e+01    5.522477e+02    4.804750e-03    5.432122e+06    4.183348e-09    6.244270e-15    8.365000e-10    1.512074e-10    5.400000e-01    6.559844e-01    3.207674e-02
    2.902534e+01    5.503244e+02    6.445245e-03    6.962369e+06    4.276415e-09    7.345505e-15    9.820700e-10    1.755506e-10    5.500000e-01    6.559844e-01    3.281693e-02
    2.831051e+01    5.500821e+02    8.585250e-03    8.822913e+06    4.384386e-09    8.629500e-15    1.148129e-09    2.031144e-10    5.600000e-01    6.559844e-01    3.374221e-02
    2.757562e+01    5.517203e+02    1.135317e-02    1.105220e+07    4.508309e-09    1.012168e-14    1.336088e-09    2.340789e-10    5.700000e-01    6.559844e-01    3.488018e-02
    2.682227e+01    5.553324e+02    1.490217e-02    1.368387e+07    4.648965e-09    1.184930e-14    1.546984e-09    2.685562e-10    5.800000e-01    6.559844e-01    3.625684e-02
    2.605121e+01    5.608998e+02    1.941204e-02    1.674427e+07    4.806766e-09    1.384105e-14    1.781333e-09    3.065676e-10    5.900000e-01    6.559844e-01    3.789528e-02
    2.526301e+01    5.682973e+02    2.509034e-02    2.025068e+07    4.981639e-09    1.612649e-14    2.038974e-09    3.480224e-10    6.000000e-01    6.559844e-01    3.981463e-02
    2.445910e+01    5.773170e+02    3.217242e-02    2.421068e+07    5.172940e-09    1.873540e-14    2.318942e-09    3.927007e-10    6.100000e-01    6.559844e-01    4.202941e-02
    2.364213e+01    5.876903e+02    4.092042e-02    2.862299e+07    5.379375e-09    2.169687e-14    2.619382e-09    4.402439e-10    6.200000e-01    6.559844e-01    4.454937e-02
    2.281602e+01    5.991139e+02    5.162105e-02    3.347933e+07    5.598995e-09    2.503849e-14    2.937520e-09    4.901562e-10    6.300000e-01    6.559844e-01    4.737966e-02
    2.198561e+01    6.112690e+02    6.458240e-02    3.876702e+07    5.829220e-09    2.878538e-14    3.269724e-09    5.418190e-10    6.400000e-01    6.559844e-01    5.052123e-02
    2.115603e+01    6.238356e+02    8.013000e-02    4.447125e+07    6.066945e-09    3.295935e-14    3.611646e-09    5.945185e-10    6.500000e-01    6.559844e-01    5.397140e-02
    2.033233e+01    6.365032e+02    9.860165e-02    5.057679e+07    6.308705e-09    3.757821e-14    3.958444e-09    6.474845e-10    6.600000e-01    6.559844e-01    5.772435e-02
    1.951908e+01    6.489777e+02    1.203420e-01    5.706874e+07    6.550860e-09    4.265532e-14    4.305066e-09    6.999345e-10    6.700000e-01    6.559844e-01    6.177166e-02
    1.872025e+01    6.609896e+02    1.456961e-01    6.393240e+07    6.789825e-09    4.819932e-14    4.646551e-09    7.511220e-10    6.800000e-01    6.559844e-01    6.610268e-02
    1.793915e+01    6.722991e+02    1.750034e-01    7.115257e+07    7.022275e-09    5.421425e-14    4.978318e-09    8.003775e-10    6.900000e-01    6.559844e-01    7.070493e-02
    1.717854e+01    6.827032e+02    2.085915e-01    7.871276e+07    7.245325e-09    6.069980e-14    5.296400e-09    8.471425e-10    7.000000e-01    6.559844e-01    7.556443e-02
    1.644073e+01    6.920408e+02    2.467698e-01    8.659451e+07    7.456635e-09    6.765205e-14    5.597615e-09    8.909885e-10    7.100000e-01    6.559844e-01    8.066599e-02
    1.572760e+01    7.001925e+02    2.898250e-01    9.477692e+07    7.654485e-09    7.506380e-14    5.879640e-09    9.316240e-10    7.200000e-01    6.559844e-01    8.599359e-02
    1.504067e+01    7.070842e+02    3.380175e-01    1.032367e+08    7.837765e-09    8.292575e-14    6.141015e-09    9.688910e-10    7.300000e-01    6.559844e-01    9.153069e-02
    1.438114e+01    7.126842e+02    3.915779e-01    1.119487e+08    8.005945e-09    9.122695e-14    6.381065e-09    1.002751e-09    7.400000e-01    6.559844e-01    9.726053e-02
    1.374984e+01    7.169952e+02    4.507064e-01    1.208857e+08    8.158995e-09    9.995550e-14    6.599820e-09    1.033263e-09    7.500000e-01    6.559844e-01    1.031665e-01
    1.314728e+01    7.200538e+02    5.155730e-01    1.300201e+08    8.297280e-09    1.090995e-13    6.797845e-09    1.060566e-09    7.600000e-01    6.559844e-01    1.092323e-01
    1.257370e+01    7.219202e+02    5.863165e-01    1.393244e+08    8.421480e-09    1.186470e-13    6.976140e-09    1.084851e-09    7.700000e-01    6.559844e-01    1.154422e-01
    1.202899e+01    7.226745e+02    6.630495e-01    1.487716e+08    8.532475e-09    1.285871e-13    7.135975e-09    1.106349e-09    7.800000e-01    6.559844e-01    1.217816e-01
    1.151276e+01    7.224074e+02    7.458580e-01    1.583362e+08    8.631285e-09    1.389096e-13    7.278805e-09    1.125305e-09    7.900000e-01    6.559844e-01    1.282363e-01
    1.102441e+01    7.212165e+02    8.348055e-01    1.679944e+08    8.718985e-09    1.496056e-13    7.406150e-09    1.141974e-09    8.000000e-01    6.559844e-01    1.347936e-01
    1.056312e+01    7.192020e+02    9.299350e-01    1.777243e+08    8.796665e-09    1.606673e-13    7.519545e-09    1.156599e-09    8.100000e-01    6.559844e-01    1.414417e-01
    1.012792e+01    7.164616e+02    1.031273e+00    1.875068e+08    8.865370e-09    1.720886e-13    7.620475e-09    1.169419e-09    8.200000e-01    6.559844e-01    1.481696e-01
    9.717719e+00    7.130898e+02    1.138830e+00    1.973244e+08    8.926115e-09    1.838641e-13    7.710350e-09    1.180651e-09    8.300000e-01    6.559844e-01    1.549679e-01
    9.331327e+00    7.091739e+02    1.252608e+00    2.071623e+08    8.979825e-09    1.959903e-13    7.790465e-09    1.190495e-09    8.400000e-01    6.559844e-01    1.618277e-01
    8.967522e+00    7.047948e+02    1.372596e+00    2.170078e+08    9.027340e-09    2.084647e-13    7.862010e-09    1.199131e-09    8.500000e-01    6.559844e-01    1.687413e-01
    8.625052e+00    7.000255e+02    1.498777e+00    2.268497e+08    9.069440e-09    2.212858e-13    7.926050e-09    1.206719e-09    8.600000e-01    6.559844e-01    1.757018e-01
    8.302668e+00    6.949311e+02    1.631128e+00    2.366791e+08    9.106800e-09    2.344532e-13    7.983535e-09    1.213403e-09    8.700000e-01    6.559844e-01    1.827033e-01
    7.999144e+00    6.895693e+02    1.769621e+00    2.464882e+08    9.140030e-09    2.479680e-13    8.035315e-09    1.219304e-09    8.800000e-01    6.559844e-01    1.897403e-01
    7.713289e+00    6.839905e+02    1.914226e+00    2.562712e+08    9.169655e-09    2.618314e-13    8.082120e-09    1.224530e-09    8.900000e-01    6.559844e-01    1.968082e-01
    7.443952e+00    6.782383e+02    2.064909e+00    2.660227e+08    9.196145e-09    2.760462e-13    8.124595e-09    1.229176e-09    9.000000e-01    6.559844e-01    2.039029e-01
    7.190041e+00    6.723504e+02    2.221636e+00    2.757386e+08    9.219910e-09    2.906155e-13    8.163310e-09    1.233322e-09    9.100000e-01    6.559844e-01    2.110208e-01
    6.950521e+00    6.663591e+02    2.384370e+00    2.854158e+08    9.241300e-09    3.055432e-13    8.198750e-09    1.237037e-09    9.200000e-01    6.559844e-01    2.181590e-01
    6.724415e+00    6.602920e+02    2.553075e+00    2.950519e+08    9.260615e-09    3.208340e-13    8.231335e-09    1.240381e-09    9.300000e-01    6.559844e-01    2.253146e-01
    6.510804e+00    6.541724e+02    2.727716e+00    3.046448e+08    9.278125e-09    3.364930e-13    8.261430e-09    1.243405e-09    9.400000e-01    6.559844e-01    2.324853e-01
    6.308834e+00    6.480194e+02    2.908256e+00    3.141932e+08    9.294050e-09    3.525261e-13    8.289345e-09    1.246151e-09    9.500000e-01    6.559844e-01    2.396692e-01
    6.117706e+00    6.418497e+02    3.094658e+00    3.236959e+08    9.308595e-09    3.689394e-13    8.315355e-09    1.248657e-09    9.600000e-01    6.559844e-01    2.468644e-01
    5.936676e+00    6.356768e+02    3.286887e+00    3.331522e+08    9.321925e-09    3.857398e-13    8.339690e-09    1.250957e-09    9.700000e-01    6.559844e-01    2.540695e-01
    5.765055e+00    6.295118e+02    3.484910e+00    3.425614e+08    9.334190e-09    4.029345e-13    8.362555e-09    1.253075e-09    9.800000e-01    6.559844e-01    2.612832e-01
    5.602208e+00    6.233642e+02    3.688690e+00    3.519238e+08    9.345505e-09    4.205310e-13    8.384120e-09    1.255036e-09    9.900000e-01    6.559844e-01    2.685043e-01
    5.447541e+00    6.172415e+02    3.898194e+00    3.612387e+08    9.355990e-09    4.385375e-13    8.404530e-09    1.256859e-09    1.000000e+00    6.559844e-01    2.757319e-01
    5.300507e+00    6.111495e+02    4.113390e+00    3.705062e+08    9.365735e-09    4.569624e-13    8.423920e-09    1.258560e-09    1.010000e+00    6.559844e-01    2.829652e-01
    5.160601e+00    6.050935e+02    4.334244e+00    3.797267e+08    9.374815e-09    4.758145e-13    8.442400e-09    1.260155e-09    1.020000e+00    6.559844e-01    2.902034e-01
    5.027356e+00    5.990769e+02    4.560725e+00    3.888996e+08    9.383310e-09    4.951031e-13    8.460060e-09    1.261656e-09    1.030000e+00    6.559844e-01    2.974459e-01
    4.900340e+00    5.931030e+02    4.792801e+00    3.980259e+08    9.391270e-09    5.148375e-13    8.476990e-09    1.263075e-09    1.040000e+00    6.559844e-01    3.046922e-01
    4.779154e+00    5.871740e+02    5.030440e+00    4.071053e+08    9.398755e-09    5.350280e-13    8.493255e-09    1.264418e-09    1.050000e+00    6.559844e-01    3.119419e-01
    4.663425e+00    5.812914e+02    5.273615e+00    4.161380e+08    9.405810e-09    5.556850e-13    8.508925e-09    1.265695e-09    1.060000e+00    6.559844e-01    3.191945e-01
    4.552815e+00    5.754566e+02    5.522295e+00    4.251245e+08    9.412470e-09    5.768185e-13    8.524055e-09    1.266912e-09    1.070000e+00    6.559844e-01    3.264498e-01
    4.447010e+00    5.696702e+02    5.776445e+00    4.340647e+08    9.418775e-09    5.984400e-13    8.538685e-09    1.268075e-09    1.080000e+00    6.559844e-01    3.337075e-01
    4.345715e+00    5.639327e+02    6.036040e+00    4.429589e+08    9.424755e-09    6.205605e-13    8.552860e-09    1.269189e-09    1.090000e+00    6.559844e-01    3.409673e-01
    4.248655e+00    5.582440e+02    6.301055e+00    4.518072e+08    9.430435e-09    6.431925e-13    8.566625e-09    1.270259e-09    1.100000e+00    6.559844e-01    3.482291e-01
    4.155589e+00    5.526045e+02    6.571450e+00    4.606100e+08    9.435840e-09    6.663470e-13    8.580000e-09    1.271288e-09    1.110000e+00    6.559844e-01    3.554927e-01
    4.066273e+00    5.470134e+02    6.847210e+00    4.693672e+08    9.440990e-09    6.900370e-13    8.593020e-09    1.272280e-09    1.120000e+00    6.559844e-01    3.627580e-01
    3.980499e+00    5.414711e+02    7.128295e+00    4.780791e+08    9.445905e-09    7.142755e-13    8.605710e-09    1.273238e-09    1.130000e+00    6.559844e-01    3.700248e-01
    3.898064e+00    5.359763e+02    7.414680e+00    4.867457e+08    9.450600e-09    7.390750e-13    8.618095e-09    1.274165e-09    1.140000e+00    6.559844e-01    3.772931e-01
    3.818779e+00    5.305284e+02    7.706340e+00    4.953671e+08    9.455090e-09    7.644500e-13    8.630190e-09    1.275062e-09    1.150000e+00    6.559844e-01    3.845628e-01
    3.742470e+00    5.251273e+02    8.003250e+00    5.039436e+08    9.459385e-09    7.904140e-13    8.642020e-09    1.275931e-09    1.160000e+00    6.559844e-01    3.918338e-01
    3.668980e+00    5.197721e+02    8.305370e+00    5.124748e+08    9.463505e-09    8.169820e-13    8.653595e-09    1.276775e-09    1.170000e+00    6.559844e-01    3.991062e-01
    3.598154e+00    5.144618e+02    8.612685e+00    5.209607e+08    9.467460e-09    8.441675e-13    8.664930e-09    1.277596e-09    1.180000e+00    6.559844e-01    4.063798e-01
    3.529855e+00    5.091958e+02    8.925155e+00    5.294019e+08    9.471250e-09    8.719870e-13    8.676045e-09    1.278394e-09    1.190000e+00    6.559844e-01    4.136548e-01
    3.463948e+00    5.039736e+02    9.242765e+00    5.377981e+08    9.474890e-09    9.004560e-13    8.686945e-09    1.279170e-09    1.200000e+00    6.559844e-01    4.209310e-01
    3.400315e+00    4.987939e+02    9.565475e+00    5.461492e+08    9.478390e-09    9.295900e-13    8.697645e-09    1.279927e-09    1.210000e+00    6.559844e-01    4.282084e-01
    3.338838e+00    4.936561e+02    9.893265e+00    5.544551e+08    9.481755e-09    9.594065e-13    8.708155e-09    1.280665e-09    1.220000e+00    6.559844e-01    4.354872e-01
    3.279411e+00    4.885595e+02    1.022611e+01    5.627162e+08    9.484990e-09    9.899220e-13    8.718480e-09    1.281386e-09    1.230000e+00    6.559844e-01    4.427672e-01
    3.221933e+00    4.835035e+02    1.056397e+01    5.709318e+08    9.488105e-09    1.021155e-12    8.728635e-09    1.282089e-09    1.240000e+00    6.559844e-01    4.500486e-01
    3.166311e+00    4.784872e+02    1.090683e+01    5.791024e+08    9.491105e-09    1.053122e-12    8.738620e-09    1.282776e-09    1.250000e+00    6.559844e-01    4.573313e-01
    3.112456e+00    4.735093e+02    1.125465e+01    5.872275e+08    9.493995e-09    1.085843e-12    8.748450e-09    1.283448e-09    1.260000e+00    6.559844e-01    4.646153e-01
    3.060286e+00    4.685701e+02    1.160741e+01    5.953075e+08    9.496775e-09    1.119336e-12    8.758130e-09    1.284105e-09    1.270000e+00    6.559844e-01    4.719008e-01
    3.009723e+00    4.636685e+02    1.196508e+01    6.033418e+08    9.499460e-09    1.153623e-12    8.767665e-09    1.284748e-09    1.280000e+00    6.559844e-01    4.791877e-01
    2.960694e+00    4.588034e+02    1.232763e+01    6.113306e+08    9.502045e-09    1.188722e-12    8.777060e-09    1.285378e-09    1.290000e+00    6.559844e-01    4.864760e-01
    2.913129e+00    4.539747e+02    1.269504e+01    6.192741e+08    9.504535e-09    1.224655e-12    8.786325e-09    1.285995e-09    1.300000e+00    6.559844e-01    4.937659e-01
    2.866965e+00    4.491813e+02    1.306727e+01    6.271719e+08    9.506935e-09    1.261444e-12    8.795460e-09    1.286599e-09    1.310000e+00    6.559844e-01    5.010574e-01
    2.822138e+00    4.444232e+02    1.344430e+01    6.350237e+08    9.509255e-09    1.299110e-12    8.804470e-09    1.287192e-09    1.320000e+00    6.559844e-01    5.083504e-01
    2.778593e+00    4.396993e+02    1.382609e+01    6.428297e+08    9.511490e-09    1.337676e-12    8.813365e-09    1.287774e-09    1.330000e+00    6.559844e-01    5.156451e-01
    2.736275e+00    4.350092e+02    1.421263e+01    6.505898e+08    9.513645e-09    1.377166e-12    8.822140e-09    1.288344e-09    1.340000e+00    6.559844e-01    5.229415e-01
    2.695132e+00    4.303522e+02    1.460388e+01    6.583038e+08    9.515725e-09    1.417604e-12    8.830810e-09    1.288904e-09    1.350000e+00    6.559844e-01    5.302396e-01
    2.655116e+00    4.257280e+02    1.499981e+01    6.659718e+08    9.517730e-09    1.459015e-12    8.839375e-09    1.289454e-09    1.360000e+00    6.559844e-01    5.375395e-01
    2.616180e+00    4.211361e+02    1.540039e+01    6.735935e+08    9.519665e-09    1.501425e-12    8.847835e-09    1.289994e-09    1.370000e+00    6.559844e-01    5.448413e-01
    2.578284e+00    4.165759e+02    1.580560e+01    6.811691e+08    9.521530e-09    1.544859e-12    8.856195e-09    1.290525e-09    1.380000e+00    6.559844e-01    5.521450e-01
    2.541381e+00    4.120467e+02    1.621541e+01    6.886979e+08    9.523335e-09    1.589347e-12    8.864460e-09    1.291047e-09    1.390000e+00    6.559844e-01    5.594506e-01
    2.505437e+00    4.075485e+02    1.662978e+01    6.961805e+08    9.525070e-09    1.634914e-12    8.872630e-09    1.291559e-09    1.400000e+00    6.559844e-01    5.667583e-01
    2.470413e+00    4.030805e+02    1.704869e+01    7.036167e+08    9.526745e-09    1.681591e-12    8.880715e-09    1.292064e-09    1.410000e+00    6.559844e-01    5.740680e-01
    2.436273e+00    3.986424e+02    1.747211e+01    7.110058e+08    9.528365e-09    1.729407e-12    8.888710e-09    1.292560e-09    1.420000e+00    6.559844e-01    5.813798e-01
    2.402985e+00    3.942338e+02    1.790002e+01    7.183489e+08    9.529920e-09    1.778393e-12    8.896625e-09    1.293049e-09    1.430000e+00    6.559844e-01    5.886938e-01
    2.370517e+00    3.898543e+02    1.833237e+01    7.256447e+08    9.531425e-09    1.828581e-12    8.904455e-09    1.293530e-09    1.440000e+00    6.559844e-01    5.960100e-01
    2.338838e+00    3.855036e+02    1.876916e+01    7.328938e+08    9.532875e-09    1.880002e-12    8.912205e-09    1.294003e-09    1.450000e+00    6.559844e-01    6.033285e-01
    2.307920e+00    3.811811e+02    1.921033e+01    7.400959e+08    9.534275e-09    1.932691e-12    8.919880e-09    1.294469e-09    1.460000e+00    6.559844e-01    6.106493e-01
    2.277737e+00    3.768868e+02    1.965586e+01    7.472514e+08    9.535620e-09    1.986683e-12    8.927480e-09    1.294929e-09    1.470000e+00    6.559844e-01    6.179726e-01
    2.248260e+00    3.726199e+02    2.010573e+01    7.543595e+08    9.536920e-09    2.042013e-12    8.935010e-09    1.295381e-09    1.480000e+00    6.559844e-01    6.252983e-01
    2.219466e+00    3.683805e+02    2.055991e+01    7.614205e+08    9.538175e-09    2.098718e-12    8.942470e-09    1.295828e-09    1.490000e+00    6.559844e-01    6.326266e-01
