# GF180MCU-D nfet_03v3 gm/ID Processed Lookup Table
# Corner: sf
# Temperature: -40C
# W = 2.0 um
# L = 2.5 um (2500 nm)
# Columns: gm/id [1/V]  gm/gds [V/V]  id/W [A/m]  ft [Hz]  Cgg/W [F/m]  Cgd/W [F/m]  Cgs/W [F/m]  Cdb/W [F/m]  vgs [V]  vth [V]  vdsat [V]
# vdsat = BSIM saturation voltage (|VDS|_sat, positive); use for headroom / saturation / cascode-bias calculations
#           gm/id          gm/gds            id/W              ft           Cgg/W           Cgd/W           Cgs/W           Cdb/W             vgs             vth           vdsat
    3.420181e+01    5.498060e+02    7.977950e-05    1.395632e+05    3.111643e-09    5.737415e-16    5.799500e-11    1.578581e-11    5.700000e-01    8.168804e-01    2.993195e-02
    3.414499e+01    5.474666e+02    1.122874e-04    1.961085e+05    3.111584e-09    6.774940e-16    7.232685e-11    1.853381e-11    5.800000e-01    8.168804e-01    2.994705e-02
    3.402929e+01    5.447738e+02    1.579041e-04    2.746795e+05    3.113437e-09    7.997395e-16    8.923785e-11    2.175898e-11    5.900000e-01    8.168804e-01    2.996821e-02
    3.385980e+01    5.417003e+02    2.217355e-04    3.832911e+05    3.117533e-09    9.437785e-16    1.091998e-10    2.554465e-11    6.000000e-01    8.168804e-01    2.999777e-02
    3.363903e+01    5.382291e+02    3.107629e-04    5.325314e+05    3.124262e-09    1.113502e-15    1.327674e-10    2.998753e-11    6.100000e-01    8.168804e-01    3.003892e-02
    3.336772e+01    5.343595e+02    4.344645e-04    7.361915e+05    3.134081e-09    1.313495e-15    1.605863e-10    3.519909e-11    6.200000e-01    8.168804e-01    3.009593e-02
    3.304579e+01    5.301157e+02    6.056080e-04    1.011952e+06    3.147515e-09    1.549136e-15    1.934021e-10    4.130664e-11    6.300000e-01    8.168804e-01    3.017448e-02
    3.267299e+01    5.255536e+02    8.412400e-04    1.382076e+06    3.165169e-09    1.826725e-15    2.320665e-10    4.845421e-11    6.400000e-01    8.168804e-01    3.028204e-02
    3.224944e+01    5.207718e+02    1.163909e-03    1.874047e+06    3.187724e-09    2.153603e-15    2.775410e-10    5.680280e-11    6.500000e-01    8.168804e-01    3.042824e-02
    3.177635e+01    5.159152e+02    1.603136e-03    2.521077e+06    3.215942e-09    2.538292e-15    3.308976e-10    6.653010e-11    6.600000e-01    8.168804e-01    3.062527e-02
    3.125614e+01    5.111810e+02    2.197169e-03    3.362380e+06    3.250663e-09    2.990618e-15    3.933134e-10    7.782900e-11    6.700000e-01    8.168804e-01    3.088825e-02
    3.069268e+01    5.068156e+02    2.995033e-03    4.443164e+06    3.292792e-09    3.521849e-15    4.660589e-10    9.090495e-11    6.800000e-01    8.168804e-01    3.123542e-02
    3.009089e+01    5.031012e+02    4.058894e-03    5.814183e+06    3.343290e-09    4.144806e-15    5.504755e-10    1.059714e-10    6.900000e-01    8.168804e-01    3.168817e-02
    2.945621e+01    5.003381e+02    5.466715e-03    7.530828e+06    3.403147e-09    4.873956e-15    6.479410e-10    1.232432e-10    7.000000e-01    8.168804e-01    3.227074e-02
    2.879373e+01    4.988146e+02    7.315215e-03    9.651551e+06    3.473347e-09    5.725460e-15    7.598200e-10    1.429275e-10    7.100000e-01    8.168804e-01    3.300961e-02
    2.810758e+01    4.987768e+02    9.722940e-03    1.223555e+07    3.554821e-09    6.717170e-15    8.873990e-10    1.652116e-10    7.200000e-01    8.168804e-01    3.393250e-02
    2.740019e+01    5.003972e+02    1.283339e-02    1.533960e+07    3.648389e-09    7.868565e-15    1.031798e-09    1.902489e-10    7.300000e-01    8.168804e-01    3.506708e-02
    2.667254e+01    5.037558e+02    1.681779e-02    1.901427e+07    3.754688e-09    9.200565e-15    1.193873e-09    2.181413e-10    7.400000e-01    8.168804e-01    3.643956e-02
    2.592468e+01    5.088302e+02    2.187722e-02    2.330001e+07    3.874090e-09    1.073526e-14    1.374105e-09    2.489220e-10    7.500000e-01    8.168804e-01    3.807336e-02
    2.515672e+01    5.155047e+02    2.824383e-02    2.822403e+07    4.006625e-09    1.249552e-14    1.572486e-09    2.825382e-10    7.600000e-01    8.168804e-01    3.998799e-02
    2.436961e+01    5.235851e+02    3.618074e-02    3.379860e+07    4.151905e-09    1.450452e-14    1.788418e-09    3.188361e-10    7.700000e-01    8.168804e-01    4.219837e-02
    2.356586e+01    5.328249e+02    4.598069e-02    4.002170e+07    4.309069e-09    1.678506e-14    2.020635e-09    3.575525e-10    7.800000e-01    8.168804e-01    4.471451e-02
    2.274945e+01    5.429465e+02    5.796335e-02    4.687927e+07    4.476759e-09    1.935896e-14    2.267180e-09    3.983133e-10    7.900000e-01    8.168804e-01    4.754167e-02
    2.192553e+01    5.536611e+02    7.247155e-02    5.434903e+07    4.653138e-09    2.224635e-14    2.525423e-09    4.406424e-10    8.000000e-01    8.168804e-01    5.068076e-02
    2.109979e+01    5.646825e+02    8.986635e-02    6.240413e+07    4.835952e-09    2.546497e-14    2.792157e-09    4.839808e-10    8.100000e-01    8.168804e-01    5.412886e-02
    2.027792e+01    5.757366e+02    1.105215e-01    7.101637e+07    5.022635e-09    2.902966e-14    3.063750e-09    5.277150e-10    8.200000e-01    8.168804e-01    5.787984e-02
    1.946513e+01    5.865675e+02    1.348171e-01    8.015803e+07    5.210450e-09    3.295189e-14    3.336347e-09    5.712120e-10    8.300000e-01    8.168804e-01    6.192486e-02
    1.866599e+01    5.969430e+02    1.631327e-01    8.980239e+07    5.396650e-09    3.723958e-14    3.606095e-09    6.138555e-10    8.400000e-01    8.168804e-01    6.625288e-02
    1.788430e+01    6.066596e+02    1.958407e-01    9.992318e+07    5.578645e-09    4.189706e-14    3.869362e-09    6.550820e-10    8.500000e-01    8.168804e-01    7.085103e-02
    1.712316e+01    6.155456e+02    2.332994e-01    1.104941e+08    5.754115e-09    4.692526e-14    4.122936e-09    6.944080e-10    8.600000e-01    8.168804e-01    7.570503e-02
    1.638507e+01    6.234654e+02    2.758468e-01    1.214871e+08    5.921150e-09    5.232205e-14    4.364162e-09    7.314515e-10    8.700000e-01    8.168804e-01    8.079946e-02
    1.567202e+01    6.303202e+02    3.237952e-01    1.328726e+08    6.078270e-09    5.808285e-14    4.591024e-09    7.659375e-10    8.800000e-01    8.168804e-01    8.611815e-02
    1.498553e+01    6.360487e+02    3.774271e-01    1.446180e+08    6.224480e-09    6.420100e-14    4.802168e-09    7.977025e-10    8.900000e-01    8.168804e-01    9.164446e-02
    1.432675e+01    6.406251e+02    4.369928e-01    1.566889e+08    6.359220e-09    7.066845e-14    4.996867e-09    8.266800e-10    9.000000e-01    8.168804e-01    9.736160e-02
    1.369646e+01    6.440558e+02    5.027080e-01    1.690495e+08    6.482320e-09    7.747625e-14    5.174950e-09    8.528915e-10    9.100000e-01    8.168804e-01    1.032529e-01
    1.309509e+01    6.463732e+02    5.747550e-01    1.816623e+08    6.593965e-09    8.461525e-14    5.336705e-09    8.764265e-10    9.200000e-01    8.168804e-01    1.093022e-01
    1.252277e+01    6.476317e+02    6.532830e-01    1.944908e+08    6.694570e-09    9.207615e-14    5.482785e-09    8.974255e-10    9.300000e-01    8.168804e-01    1.154938e-01
    1.197934e+01    6.479021e+02    7.384085e-01    2.074986e+08    6.784760e-09    9.985025e-14    5.614090e-09    9.160640e-10    9.400000e-01    8.168804e-01    1.218128e-01
    1.146436e+01    6.472651e+02    8.302220e-01    2.206517e+08    6.865260e-09    1.079294e-13    5.731690e-09    9.325375e-10    9.500000e-01    8.168804e-01    1.282455e-01
    1.097719e+01    6.458073e+02    9.287860e-01    2.339175e+08    6.936880e-09    1.163063e-13    5.836745e-09    9.470495e-10    9.600000e-01    8.168804e-01    1.347788e-01
    1.051698e+01    6.436170e+02    1.034142e+00    2.472667e+08    7.000445e-09    1.249748e-13    5.930430e-09    9.598035e-10    9.700000e-01    8.168804e-01    1.414009e-01
    1.008274e+01    6.407823e+02    1.146312e+00    2.606728e+08    7.056770e-09    1.339292e-13    6.013920e-09    9.709945e-10    9.800000e-01    8.168804e-01    1.481012e-01
    9.673386e+00    6.373869e+02    1.265302e+00    2.741124e+08    7.106635e-09    1.431655e-13    6.088320e-09    9.808065e-10    9.900000e-01    8.168804e-01    1.548697e-01
    9.287723e+00    6.335087e+02    1.391103e+00    2.875648e+08    7.150770e-09    1.526802e-13    6.154670e-09    9.894090e-10    1.000000e+00    8.168804e-01    1.616978e-01
    8.924531e+00    6.292202e+02    1.523697e+00    3.010120e+08    7.189860e-09    1.624711e-13    6.213935e-09    9.969555e-10    1.010000e+00    8.168804e-01    1.685777e-01
    8.582575e+00    6.245873e+02    1.663058e+00    3.144396e+08    7.224505e-09    1.725367e-13    6.266970e-09    1.003584e-09    1.020000e+00    8.168804e-01    1.755024e-01
    8.260613e+00    6.196682e+02    1.809152e+00    3.278342e+08    7.255265e-09    1.828765e-13    6.314560e-09    1.009416e-09    1.030000e+00    8.168804e-01    1.824659e-01
    7.957431e+00    6.145148e+02    1.961939e+00    3.411855e+08    7.282625e-09    1.934907e-13    6.357390e-09    1.014560e-09    1.040000e+00    8.168804e-01    1.894627e-01
    7.671845e+00    6.091725e+02    2.121377e+00    3.544847e+08    7.307020e-09    2.043804e-13    6.396070e-09    1.019109e-09    1.050000e+00    8.168804e-01    1.964882e-01
    7.402721e+00    6.036811e+02    2.287421e+00    3.677251e+08    7.328825e-09    2.155471e-13    6.431140e-09    1.023146e-09    1.060000e+00    8.168804e-01    2.035382e-01
    7.148975e+00    5.980745e+02    2.460024e+00    3.809006e+08    7.348380e-09    2.269932e-13    6.463060e-09    1.026740e-09    1.070000e+00    8.168804e-01    2.106090e-01
    6.909579e+00    5.923820e+02    2.639137e+00    3.940069e+08    7.365970e-09    2.387217e-13    6.492235e-09    1.029953e-09    1.080000e+00    8.168804e-01    2.176976e-01
    6.683562e+00    5.866282e+02    2.824714e+00    4.070405e+08    7.381845e-09    2.507358e-13    6.519020e-09    1.032838e-09    1.090000e+00    8.168804e-01    2.248013e-01
    6.470018e+00    5.808346e+02    3.016704e+00    4.199990e+08    7.396225e-09    2.630394e-13    6.543720e-09    1.035439e-09    1.100000e+00    8.168804e-01    2.319176e-01
    6.268095e+00    5.750186e+02    3.215060e+00    4.328803e+08    7.409295e-09    2.756371e-13    6.566600e-09    1.037794e-09    1.110000e+00    8.168804e-01    2.390445e-01
    6.076998e+00    5.691953e+02    3.419734e+00    4.456828e+08    7.421225e-09    2.885334e-13    6.587880e-09    1.039939e-09    1.120000e+00    8.168804e-01    2.461803e-01
    5.895990e+00    5.633768e+02    3.630679e+00    4.584059e+08    7.432150e-09    3.017335e-13    6.607765e-09    1.041899e-09    1.130000e+00    8.168804e-01    2.533233e-01
    5.724387e+00    5.575735e+02    3.847847e+00    4.710491e+08    7.442190e-09    3.152431e-13    6.626415e-09    1.043700e-09    1.140000e+00    8.168804e-01    2.604724e-01
    5.561554e+00    5.517939e+02    4.071194e+00    4.836122e+08    7.451450e-09    3.290678e-13    6.643980e-09    1.045362e-09    1.150000e+00    8.168804e-01    2.676263e-01
    5.406899e+00    5.460445e+02    4.300675e+00    4.960949e+08    7.460025e-09    3.432140e-13    6.660585e-09    1.046902e-09    1.160000e+00    8.168804e-01    2.747841e-01
    5.259880e+00    5.403310e+02    4.536246e+00    5.084978e+08    7.467985e-09    3.576882e-13    6.676335e-09    1.048337e-09    1.170000e+00    8.168804e-01    2.819449e-01
    5.119992e+00    5.346578e+02    4.777862e+00    5.208208e+08    7.475405e-09    3.724971e-13    6.691335e-09    1.049677e-09    1.180000e+00    8.168804e-01    2.891080e-01
    4.986767e+00    5.290284e+02    5.025485e+00    5.330645e+08    7.482340e-09    3.876481e-13    6.705650e-09    1.050936e-09    1.190000e+00    8.168804e-01    2.962728e-01
    4.859781e+00    5.234452e+02    5.279065e+00    5.452294e+08    7.488840e-09    4.031483e-13    6.719360e-09    1.052121e-09    1.200000e+00    8.168804e-01    3.034388e-01
    4.738627e+00    5.179105e+02    5.538570e+00    5.573161e+08    7.494950e-09    4.190055e-13    6.732525e-09    1.053242e-09    1.210000e+00    8.168804e-01    3.106055e-01
    4.622942e+00    5.124256e+02    5.803955e+00    5.693249e+08    7.500710e-09    4.352278e-13    6.745200e-09    1.054306e-09    1.220000e+00    8.168804e-01    3.177726e-01
    4.512379e+00    5.069915e+02    6.075185e+00    5.812570e+08    7.506145e-09    4.518233e-13    6.757425e-09    1.055316e-09    1.230000e+00    8.168804e-01    3.249397e-01
    4.406628e+00    5.016092e+02    6.352215e+00    5.931123e+08    7.511295e-09    4.688006e-13    6.769240e-09    1.056282e-09    1.240000e+00    8.168804e-01    3.321065e-01
    4.305394e+00    4.962785e+02    6.635010e+00    6.048915e+08    7.516180e-09    4.861686e-13    6.780690e-09    1.057205e-09    1.250000e+00    8.168804e-01    3.392729e-01
    4.208408e+00    4.909995e+02    6.923530e+00    6.165955e+08    7.520820e-09    5.039365e-13    6.791795e-09    1.058090e-09    1.260000e+00    8.168804e-01    3.464387e-01
    4.115420e+00    4.857720e+02    7.217735e+00    6.282245e+08    7.525240e-09    5.221135e-13    6.802585e-09    1.058940e-09    1.270000e+00    8.168804e-01    3.536036e-01
    4.026192e+00    4.805963e+02    7.517595e+00    6.397794e+08    7.529450e-09    5.407090e-13    6.813090e-09    1.059759e-09    1.280000e+00    8.168804e-01    3.607677e-01
    3.940510e+00    4.754711e+02    7.823070e+00    6.512600e+08    7.533475e-09    5.597335e-13    6.823320e-09    1.060548e-09    1.290000e+00    8.168804e-01    3.679308e-01
    3.858175e+00    4.703962e+02    8.134120e+00    6.626675e+08    7.537320e-09    5.791970e-13    6.833305e-09    1.061311e-09    1.300000e+00    8.168804e-01    3.750927e-01
    3.778997e+00    4.653714e+02    8.450715e+00    6.740021e+08    7.541000e-09    5.991105e-13    6.843060e-09    1.062050e-09    1.310000e+00    8.168804e-01    3.822536e-01
    3.702807e+00    4.603953e+02    8.772810e+00    6.852637e+08    7.544530e-09    6.194845e-13    6.852595e-09    1.062764e-09    1.320000e+00    8.168804e-01    3.894132e-01
    3.629437e+00    4.554676e+02    9.100380e+00    6.964533e+08    7.547915e-09    6.403300e-13    6.861925e-09    1.063459e-09    1.330000e+00    8.168804e-01    3.965717e-01
    3.558740e+00    4.505873e+02    9.433385e+00    7.075710e+08    7.551165e-09    6.616590e-13    6.871065e-09    1.064132e-09    1.340000e+00    8.168804e-01    4.037289e-01
    3.490574e+00    4.457536e+02    9.771790e+00    7.186169e+08    7.554290e-09    6.834830e-13    6.880025e-09    1.064787e-09    1.350000e+00    8.168804e-01    4.108850e-01
    3.424809e+00    4.409659e+02    1.011556e+01    7.295921e+08    7.557290e-09    7.058150e-13    6.888810e-09    1.065425e-09    1.360000e+00    8.168804e-01    4.180399e-01
    3.361320e+00    4.362232e+02    1.046466e+01    7.404961e+08    7.560180e-09    7.286665e-13    6.897440e-09    1.066046e-09    1.370000e+00    8.168804e-01    4.251935e-01
    3.299995e+00    4.315248e+02    1.081905e+01    7.513291e+08    7.562965e-09    7.520510e-13    6.905910e-09    1.066650e-09    1.380000e+00    8.168804e-01    4.323460e-01
    3.240724e+00    4.268698e+02    1.117870e+01    7.620920e+08    7.565645e-09    7.759815e-13    6.914240e-09    1.067241e-09    1.390000e+00    8.168804e-01    4.394974e-01
    3.183408e+00    4.222575e+02    1.154358e+01    7.727845e+08    7.568230e-09    8.004725e-13    6.922430e-09    1.067817e-09    1.400000e+00    8.168804e-01    4.466477e-01
    3.127952e+00    4.176870e+02    1.191365e+01    7.834073e+08    7.570720e-09    8.255370e-13    6.930485e-09    1.068380e-09    1.410000e+00    8.168804e-01    4.537970e-01
    3.074268e+00    4.131576e+02    1.228887e+01    7.939600e+08    7.573125e-09    8.511905e-13    6.938420e-09    1.068931e-09    1.420000e+00    8.168804e-01    4.609453e-01
    3.022273e+00    4.086687e+02    1.266922e+01    8.044432e+08    7.575445e-09    8.774470e-13    6.946230e-09    1.069470e-09    1.430000e+00    8.168804e-01    4.680926e-01
    2.971887e+00    4.042193e+02    1.305466e+01    8.148569e+08    7.577685e-09    9.043230e-13    6.953925e-09    1.069996e-09    1.440000e+00    8.168804e-01    4.752390e-01
    2.923040e+00    3.998087e+02    1.344515e+01    8.252017e+08    7.579845e-09    9.318330e-13    6.961505e-09    1.070512e-09    1.450000e+00    8.168804e-01    4.823845e-01
    2.875661e+00    3.954363e+02    1.384065e+01    8.354769e+08    7.581935e-09    9.599945e-13    6.968985e-09    1.071017e-09    1.460000e+00    8.168804e-01    4.895293e-01
    2.829685e+00    3.911015e+02    1.424116e+01    8.456832e+08    7.583955e-09    9.888235e-13    6.976360e-09    1.071512e-09    1.470000e+00    8.168804e-01    4.966733e-01
    2.785051e+00    3.868037e+02    1.464661e+01    8.558209e+08    7.585905e-09    1.018337e-12    6.983640e-09    1.071998e-09    1.480000e+00    8.168804e-01    5.038167e-01
    2.741701e+00    3.825419e+02    1.505698e+01    8.658899e+08    7.587790e-09    1.048554e-12    6.990820e-09    1.072473e-09    1.490000e+00    8.168804e-01    5.109595e-01
    2.699581e+00    3.783159e+02    1.547223e+01    8.758907e+08    7.589610e-09    1.079491e-12    6.997915e-09    1.072940e-09    1.500000e+00    8.168804e-01    5.181017e-01
    2.658639e+00    3.741250e+02    1.589233e+01    8.858225e+08    7.591375e-09    1.111168e-12    7.004920e-09    1.073398e-09    1.510000e+00    8.168804e-01    5.252435e-01
    2.618826e+00    3.699684e+02    1.631726e+01    8.956868e+08    7.593075e-09    1.143604e-12    7.011840e-09    1.073849e-09    1.520000e+00    8.168804e-01    5.323849e-01
    2.580095e+00    3.658458e+02    1.674696e+01    9.054822e+08    7.594725e-09    1.176820e-12    7.018675e-09    1.074291e-09    1.530000e+00    8.168804e-01    5.395259e-01
    2.542405e+00    3.617565e+02    1.718142e+01    9.152099e+08    7.596320e-09    1.210835e-12    7.025435e-09    1.074725e-09    1.540000e+00    8.168804e-01    5.466666e-01
    2.505713e+00    3.577002e+02    1.762060e+01    9.248700e+08    7.597860e-09    1.245670e-12    7.032120e-09    1.075152e-09    1.550000e+00    8.168804e-01    5.538072e-01
    2.469980e+00    3.536761e+02    1.806445e+01    9.344624e+08    7.599350e-09    1.281349e-12    7.038730e-09    1.075572e-09    1.560000e+00    8.168804e-01    5.609476e-01
    2.435168e+00    3.496840e+02    1.851296e+01    9.439867e+08    7.600795e-09    1.317892e-12    7.045265e-09    1.075985e-09    1.570000e+00    8.168804e-01    5.680879e-01
    2.401243e+00    3.457232e+02    1.896608e+01    9.534440e+08    7.602190e-09    1.355323e-12    7.051735e-09    1.076391e-09    1.580000e+00    8.168804e-01    5.752283e-01
    2.368171e+00    3.417935e+02    1.942379e+01    9.628339e+08    7.603540e-09    1.393667e-12    7.058135e-09    1.076791e-09    1.590000e+00    8.168804e-01    5.823688e-01
    2.335920e+00    3.378941e+02    1.988605e+01    9.721567e+08    7.604845e-09    1.432947e-12    7.064475e-09    1.077184e-09    1.600000e+00    8.168804e-01    5.895094e-01
    2.304460e+00    3.340249e+02    2.035283e+01    9.814122e+08    7.606110e-09    1.473189e-12    7.070750e-09    1.077572e-09    1.610000e+00    8.168804e-01    5.966502e-01
    2.273762e+00    3.301853e+02    2.082409e+01    9.906012e+08    7.607330e-09    1.514419e-12    7.076965e-09    1.077953e-09    1.620000e+00    8.168804e-01    6.037913e-01
    2.243799e+00    3.263750e+02    2.129979e+01    9.997228e+08    7.608515e-09    1.556664e-12    7.083115e-09    1.078329e-09    1.630000e+00    8.168804e-01    6.109328e-01
    2.214544e+00    3.225935e+02    2.177993e+01    1.008778e+09    7.609660e-09    1.599951e-12    7.089215e-09    1.078699e-09    1.640000e+00    8.168804e-01    6.180748e-01
    2.185974e+00    3.188405e+02    2.226443e+01    1.017767e+09    7.610765e-09    1.644310e-12    7.095255e-09    1.079064e-09    1.650000e+00    8.168804e-01    6.252172e-01
