# GF180MCU-D nfet_03v3 gm/ID Processed Lookup Table
# Corner: sf
# Temperature: -40C
# W = 2.0 um
# L = 1.5 um (1500 nm)
# Columns: gm/id [1/V]  gm/gds [V/V]  id/W [A/m]  ft [Hz]  Cgg/W [F/m]  Cgd/W [F/m]  Cgs/W [F/m]  Cdb/W [F/m]  vgs [V]  vth [V]  vdsat [V]
# vdsat = BSIM saturation voltage (|VDS|_sat, positive); use for headroom / saturation / cascode-bias calculations
#           gm/id          gm/gds            id/W              ft           Cgg/W           Cgd/W           Cgs/W           Cdb/W             vgs             vth           vdsat
    3.444247e+01    4.211299e+02    8.613720e-05    2.552201e+05    1.850079e-09    2.387222e-16    1.882725e-11    6.393065e-12    5.700000e-01    8.289295e-01    3.220195e-02
    3.441839e+01    4.197507e+02    1.215473e-04    3.602871e+05    1.848022e-09    2.825365e-16    2.464385e-11    7.517615e-12    5.800000e-01    8.289295e-01    3.221155e-02
    3.434360e+01    4.181488e+02    1.714281e-04    5.073838e+05    1.846765e-09    3.342319e-16    3.150794e-11    8.837790e-12    5.900000e-01    8.289295e-01    3.222506e-02
    3.422306e+01    4.162984e+02    2.415427e-04    7.125204e+05    1.846441e-09    3.952172e-16    3.961039e-11    1.038826e-11    6.000000e-01    8.289295e-01    3.224404e-02
    3.405909e+01    4.141764e+02    3.398501e-04    9.972946e+05    1.847214e-09    4.671583e-16    4.917907e-11    1.220984e-11    6.100000e-01    8.289295e-01    3.227063e-02
    3.385213e+01    4.117649e+02    4.772824e-04    1.390532e+06    1.849272e-09    5.520250e-16    6.048470e-11    1.435038e-11    6.200000e-01    8.289295e-01    3.230772e-02
    3.360130e+01    4.090554e+02    6.687595e-04    1.930224e+06    1.852842e-09    6.521440e-16    7.384680e-11    1.686564e-11    6.300000e-01    8.289295e-01    3.235929e-02
    3.330518e+01    4.060541e+02    9.344955e-04    2.665747e+06    1.858190e-09    7.702605e-16    8.963905e-11    1.982013e-11    6.400000e-01    8.289295e-01    3.243061e-02
    3.296216e+01    4.027879e+02    1.301658e-03    3.660233e+06    1.865624e-09    9.096060e-16    1.082950e-10    2.328785e-11    6.500000e-01    8.289295e-01    3.252872e-02
    3.257109e+01    3.993100e+02    1.806438e-03    4.992973e+06    1.875497e-09    1.073972e-15    1.303119e-10    2.735282e-11    6.600000e-01    8.289295e-01    3.266277e-02
    3.213170e+01    3.957072e+02    2.496580e-03    6.761589e+06    1.888211e-09    1.267790e-15    1.562542e-10    3.210947e-11    6.700000e-01    8.289295e-01    3.284453e-02
    3.164494e+01    3.921037e+02    3.434442e-03    9.083718e+06    1.904219e-09    1.496216e-15    1.867540e-10    3.766246e-11    6.800000e-01    8.289295e-01    3.308881e-02
    3.111321e+01    3.886619e+02    4.700609e-03    1.209789e+07    1.924020e-09    1.765217e-15    2.225093e-10    4.412607e-11    6.900000e-01    8.289295e-01    3.341379e-02
    3.054022e+01    3.855780e+02    6.398105e-03    1.596320e+07    1.948156e-09    2.081656e-15    2.642780e-10    5.162275e-11    7.000000e-01    8.289295e-01    3.384128e-02
    2.993047e+01    3.830700e+02    8.657225e-03    2.085738e+07    1.977209e-09    2.453367e-15    3.128653e-10    6.028060e-11    7.100000e-01    8.289295e-01    3.439652e-02
    2.928870e+01    3.813604e+02    1.164090e-02    2.697283e+07    2.011780e-09    2.889220e-15    3.691056e-10    7.022995e-11    7.200000e-01    8.289295e-01    3.510781e-02
    2.861890e+01    3.806515e+02    1.555052e-02    3.450967e+07    2.052472e-09    3.399161e-15    4.338336e-10    8.159760e-11    7.300000e-01    8.289295e-01    3.600558e-02
    2.792370e+01    3.811012e+02    2.063186e-02    4.366565e+07    2.099867e-09    3.994227e-15    5.078460e-10    9.450040e-11    7.400000e-01    8.289295e-01    3.712108e-02
    2.720410e+01    3.828010e+02    2.718063e-02    5.462239e+07    2.154484e-09    4.686500e-15    5.918520e-10    1.090365e-10    7.500000e-01    8.289295e-01    3.848487e-02
    2.645981e+01    3.857629e+02    3.554691e-02    6.752952e+07    2.216742e-09    5.489025e-15    6.864130e-10    1.252750e-10    7.600000e-01    8.289295e-01    4.012504e-02
    2.569027e+01    3.899207e+02    4.613780e-02    8.248925e+07    2.286906e-09    6.415640e-15    7.918760e-10    1.432456e-10    7.700000e-01    8.289295e-01    4.206575e-02
    2.489555e+01    3.951367e+02    5.941755e-02    9.954458e+07    2.365042e-09    7.480755e-15    9.083020e-10    1.629275e-10    7.800000e-01    8.289295e-01    4.432600e-02
    2.407741e+01    4.012232e+02    7.590475e-02    1.186756e+08    2.450968e-09    8.699035e-15    1.035403e-09    1.842398e-10    7.900000e-01    8.289295e-01    4.691899e-02
    2.323960e+01    4.079614e+02    9.616690e-02    1.398044e+08    2.544213e-09    1.008503e-14    1.172488e-09    2.070357e-10    8.000000e-01    8.289295e-01    4.985197e-02
    2.238767e+01    4.151219e+02    1.208121e-01    1.628087e+08    2.644002e-09    1.165275e-14    1.318445e-09    2.311006e-10    8.100000e-01    8.289295e-01    5.312654e-02
    2.152839e+01    4.224785e+02    1.504792e-01    1.875390e+08    2.749265e-09    1.341520e-14    1.471742e-09    2.561564e-10    8.200000e-01    8.289295e-01    5.673929e-02
    2.066891e+01    4.298196e+02    1.858265e-01    2.138369e+08    2.858662e-09    1.538400e-14    1.630484e-09    2.818721e-10    8.300000e-01    8.289295e-01    6.068259e-02
    1.981614e+01    4.369529e+02    2.275192e-01    2.415494e+08    2.970649e-09    1.756895e-14    1.792498e-09    3.078805e-10    8.400000e-01    8.289295e-01    6.494537e-02
    1.897623e+01    4.437091e+02    2.762172e-01    2.705375e+08    3.083566e-09    1.997780e-14    1.955453e-09    3.337994e-10    8.500000e-01    8.289295e-01    6.951385e-02
    1.815438e+01    4.499443e+02    3.325622e-01    3.006797e+08    3.195732e-09    2.261603e-14    2.117000e-09    3.592535e-10    8.600000e-01    8.289295e-01    7.437216e-02
    1.735475e+01    4.555404e+02    3.971665e-01    3.318701e+08    3.305545e-09    2.548685e-14    2.274909e-09    3.838973e-10    8.700000e-01    8.289295e-01    7.950292e-02
    1.658059e+01    4.604074e+02    4.706018e-01    3.640154e+08    3.411567e-09    2.859133e-14    2.427190e-09    4.074324e-10    8.800000e-01    8.289295e-01    8.488768e-02
    1.583429e+01    4.644817e+02    5.533910e-01    3.970292e+08    3.512598e-09    3.192854e-14    2.572192e-09    4.296202e-10    8.900000e-01    8.289295e-01    9.050734e-02
    1.511759e+01    4.677276e+02    6.460010e-01    4.308286e+08    3.607709e-09    3.549595e-14    2.708645e-09    4.502887e-10    9.000000e-01    8.289295e-01    9.634254e-02
    1.443165e+01    4.701338e+02    7.488385e-01    4.653310e+08    3.696258e-09    3.928969e-14    2.835688e-09    4.693322e-10    9.100000e-01    8.289295e-01    1.023740e-01
    1.377713e+01    4.717106e+02    8.622470e-01    5.004517e+08    3.777883e-09    4.330497e-14    2.952848e-09    4.867064e-10    9.200000e-01    8.289295e-01    1.085827e-01
    1.315428e+01    4.724877e+02    9.865105e-01    5.361056e+08    3.852464e-09    4.753643e-14    3.059992e-09    5.024200e-10    9.300000e-01    8.289295e-01    1.149503e-01
    1.256301e+01    4.725094e+02    1.121851e+00    5.722063e+08    3.920093e-09    5.197845e-14    3.157279e-09    5.165250e-10    9.400000e-01    8.289295e-01    1.214595e-01
    1.200290e+01    4.718303e+02    1.268436e+00    6.086683e+08    3.981020e-09    5.662545e-14    3.245089e-09    5.291040e-10    9.500000e-01    8.289295e-01    1.280937e-01
    1.147330e+01    4.705123e+02    1.426382e+00    6.454082e+08    4.035615e-09    6.147205e-14    3.323964e-09    5.402630e-10    9.600000e-01    8.289295e-01    1.348375e-01
    1.097331e+01    4.686209e+02    1.595760e+00    6.823470e+08    4.084324e-09    6.651335e-14    3.394548e-09    5.501190e-10    9.700000e-01    8.289295e-01    1.416769e-01
    1.050188e+01    4.662220e+02    1.776604e+00    7.194104e+08    4.127634e-09    7.174490e-14    3.457542e-09    5.587950e-10    9.800000e-01    8.289295e-01    1.485990e-01
    1.005784e+01    4.633805e+02    1.968910e+00    7.565301e+08    4.166050e-09    7.716290e-14    3.513663e-09    5.664140e-10    9.900000e-01    8.289295e-01    1.555919e-01
    9.639901e+00    4.601580e+02    2.172651e+00    7.936448e+08    4.200068e-09    8.276415e-14    3.563620e-09    5.730940e-10    1.000000e+00    8.289295e-01    1.626453e-01
    9.246733e+00    4.566119e+02    2.387773e+00    8.306996e+08    4.230167e-09    8.854610e-14    3.608089e-09    5.789465e-10    1.010000e+00    8.289295e-01    1.697496e-01
    8.876981e+00    4.527947e+02    2.614208e+00    8.676467e+08    4.256793e-09    9.450690e-14    3.647702e-09    5.840735e-10    1.020000e+00    8.289295e-01    1.768966e-01
    8.529280e+00    4.487543e+02    2.851869e+00    9.044445e+08    4.280359e-09    1.006452e-13    3.683039e-09    5.885675e-10    1.030000e+00    8.289295e-01    1.840789e-01
    8.202289e+00    4.445317e+02    3.100662e+00    9.410578e+08    4.301237e-09    1.069605e-13    3.714626e-09    5.925125e-10    1.040000e+00    8.289295e-01    1.912900e-01
    7.894698e+00    4.401651e+02    3.360484e+00    9.774567e+08    4.319763e-09    1.134524e-13    3.742933e-09    5.959810e-10    1.050000e+00    8.289295e-01    1.985242e-01
    7.605248e+00    4.356866e+02    3.631225e+00    1.013617e+09    4.336235e-09    1.201215e-13    3.768380e-09    5.990390e-10    1.060000e+00    8.289295e-01    2.057766e-01
    7.332732e+00    4.311239e+02    3.912773e+00    1.049518e+09    4.350917e-09    1.269685e-13    3.791334e-09    6.017420e-10    1.070000e+00    8.289295e-01    2.130429e-01
    7.076006e+00    4.265010e+02    4.205012e+00    1.085143e+09    4.364039e-09    1.339949e-13    3.812120e-09    6.041395e-10    1.080000e+00    8.289295e-01    2.203194e-01
    6.833992e+00    4.218387e+02    4.507827e+00    1.120480e+09    4.375803e-09    1.412021e-13    3.831016e-09    6.062735e-10    1.090000e+00    8.289295e-01    2.276027e-01
    6.605674e+00    4.171538e+02    4.821103e+00    1.155519e+09    4.386383e-09    1.485925e-13    3.848269e-09    6.081810e-10    1.100000e+00    8.289295e-01    2.348902e-01
    6.390106e+00    4.124607e+02    5.144720e+00    1.190252e+09    4.395933e-09    1.561684e-13    3.864092e-09    6.098935e-10    1.110000e+00    8.289295e-01    2.421793e-01
    6.186398e+00    4.077719e+02    5.478570e+00    1.224674e+09    4.404583e-09    1.639324e-13    3.878666e-09    6.114375e-10    1.120000e+00    8.289295e-01    2.494682e-01
    5.993733e+00    4.030971e+02    5.822535e+00    1.258781e+09    4.412448e-09    1.718877e-13    3.892149e-09    6.128360e-10    1.130000e+00    8.289295e-01    2.567549e-01
    5.811347e+00    3.984450e+02    6.176505e+00    1.292571e+09    4.419625e-09    1.800376e-13    3.904679e-09    6.141090e-10    1.140000e+00    8.289295e-01    2.640379e-01
    5.638528e+00    3.938214e+02    6.540375e+00    1.326043e+09    4.426200e-09    1.883856e-13    3.916372e-09    6.152735e-10    1.150000e+00    8.289295e-01    2.713161e-01
    5.474628e+00    3.892324e+02    6.914030e+00    1.359197e+09    4.432245e-09    1.969354e-13    3.927331e-09    6.163430e-10    1.160000e+00    8.289295e-01    2.785882e-01
    5.319035e+00    3.846822e+02    7.297375e+00    1.392033e+09    4.437823e-09    2.056913e-13    3.937642e-09    6.173305e-10    1.170000e+00    8.289295e-01    2.858534e-01
    5.171197e+00    3.801742e+02    7.690295e+00    1.424555e+09    4.442987e-09    2.146573e-13    3.947379e-09    6.182460e-10    1.180000e+00    8.289295e-01    2.931109e-01
    5.030590e+00    3.757107e+02    8.092700e+00    1.456762e+09    4.447787e-09    2.238381e-13    3.956608e-09    6.190990e-10    1.190000e+00    8.289295e-01    3.003600e-01
    4.896741e+00    3.712942e+02    8.504485e+00    1.488658e+09    4.452260e-09    2.332382e-13    3.965384e-09    6.198965e-10    1.200000e+00    8.289295e-01    3.076002e-01
    4.769211e+00    3.669256e+02    8.925550e+00    1.520244e+09    4.456442e-09    2.428626e-13    3.973758e-09    6.206450e-10    1.210000e+00    8.289295e-01    3.148310e-01
    4.647589e+00    3.626062e+02    9.355805e+00    1.551525e+09    4.460364e-09    2.527163e-13    3.981768e-09    6.213510e-10    1.220000e+00    8.289295e-01    3.220521e-01
    4.531500e+00    3.583365e+02    9.795155e+00    1.582502e+09    4.464053e-09    2.628046e-13    3.989452e-09    6.220185e-10    1.230000e+00    8.289295e-01    3.292632e-01
    4.420596e+00    3.541168e+02    1.024351e+01    1.613178e+09    4.467529e-09    2.731330e-13    3.996843e-09    6.226520e-10    1.240000e+00    8.289295e-01    3.364639e-01
    4.314558e+00    3.499473e+02    1.070078e+01    1.643558e+09    4.470814e-09    2.837071e-13    4.003966e-09    6.232545e-10    1.250000e+00    8.289295e-01    3.436543e-01
    4.213086e+00    3.458276e+02    1.116686e+01    1.673643e+09    4.473926e-09    2.945328e-13    4.010846e-09    6.238300e-10    1.260000e+00    8.289295e-01    3.508340e-01
    4.115905e+00    3.417576e+02    1.164169e+01    1.703437e+09    4.476878e-09    3.056163e-13    4.017503e-09    6.243805e-10    1.270000e+00    8.289295e-01    3.580030e-01
    4.022761e+00    3.377368e+02    1.212516e+01    1.732943e+09    4.479685e-09    3.169636e-13    4.023957e-09    6.249080e-10    1.280000e+00    8.289295e-01    3.651613e-01
    3.933418e+00    3.337645e+02    1.261719e+01    1.762163e+09    4.482358e-09    3.285812e-13    4.030225e-09    6.254155e-10    1.290000e+00    8.289295e-01    3.723088e-01
    3.847654e+00    3.298402e+02    1.311769e+01    1.791102e+09    4.484907e-09    3.404759e-13    4.036318e-09    6.259040e-10    1.300000e+00    8.289295e-01    3.794454e-01
    3.765267e+00    3.259634e+02    1.362660e+01    1.819761e+09    4.487342e-09    3.526544e-13    4.042251e-09    6.263755e-10    1.310000e+00    8.289295e-01    3.865713e-01
    3.686064e+00    3.221328e+02    1.414383e+01    1.848142e+09    4.489672e-09    3.651239e-13    4.048035e-09    6.268310e-10    1.320000e+00    8.289295e-01    3.936864e-01
    3.609878e+00    3.183485e+02    1.466928e+01    1.876252e+09    4.491902e-09    3.778916e-13    4.053680e-09    6.272715e-10    1.330000e+00    8.289295e-01    4.007908e-01
    3.536533e+00    3.146087e+02    1.520289e+01    1.904087e+09    4.494040e-09    3.909651e-13    4.059193e-09    6.276985e-10    1.340000e+00    8.289295e-01    4.078846e-01
    3.465886e+00    3.109134e+02    1.574456e+01    1.931656e+09    4.496091e-09    4.043520e-13    4.064586e-09    6.281130e-10    1.350000e+00    8.289295e-01    4.149678e-01
    3.397789e+00    3.072613e+02    1.629423e+01    1.958957e+09    4.498062e-09    4.180604e-13    4.069863e-09    6.285155e-10    1.360000e+00    8.289295e-01    4.220405e-01
    3.332112e+00    3.036520e+02    1.685182e+01    1.985996e+09    4.499956e-09    4.320985e-13    4.075032e-09    6.289065e-10    1.370000e+00    8.289295e-01    4.291027e-01
    3.268728e+00    3.000843e+02    1.741725e+01    2.012772e+09    4.501777e-09    4.464748e-13    4.080098e-09    6.292875e-10    1.380000e+00    8.289295e-01    4.361547e-01
    3.207523e+00    2.965576e+02    1.799044e+01    2.039288e+09    4.503530e-09    4.611978e-13    4.085068e-09    6.296585e-10    1.390000e+00    8.289295e-01    4.431965e-01
    3.148388e+00    2.930709e+02    1.857132e+01    2.065547e+09    4.505219e-09    4.762768e-13    4.089946e-09    6.300200e-10    1.400000e+00    8.289295e-01    4.502282e-01
    3.091221e+00    2.896239e+02    1.915981e+01    2.091552e+09    4.506846e-09    4.917208e-13    4.094736e-09    6.303730e-10    1.410000e+00    8.289295e-01    4.572500e-01
    3.035928e+00    2.862155e+02    1.975584e+01    2.117304e+09    4.508415e-09    5.075395e-13    4.099442e-09    6.307175e-10    1.420000e+00    8.289295e-01    4.642619e-01
    2.982416e+00    2.828448e+02    2.035933e+01    2.142803e+09    4.509928e-09    5.237420e-13    4.104070e-09    6.310540e-10    1.430000e+00    8.289295e-01    4.712641e-01
    2.930607e+00    2.795115e+02    2.097021e+01    2.168055e+09    4.511388e-09    5.403395e-13    4.108622e-09    6.313825e-10    1.440000e+00    8.289295e-01    4.782567e-01
    2.880418e+00    2.762147e+02    2.158842e+01    2.193060e+09    4.512798e-09    5.573420e-13    4.113102e-09    6.317045e-10    1.450000e+00    8.289295e-01    4.852398e-01
    2.831777e+00    2.729539e+02    2.221386e+01    2.217820e+09    4.514159e-09    5.747600e-13    4.117511e-09    6.320195e-10    1.460000e+00    8.289295e-01    4.922136e-01
    2.784613e+00    2.697281e+02    2.284648e+01    2.242337e+09    4.515474e-09    5.926045e-13    4.121854e-09    6.323275e-10    1.470000e+00    8.289295e-01    4.991782e-01
    2.738858e+00    2.665367e+02    2.348621e+01    2.266612e+09    4.516744e-09    6.108875e-13    4.126134e-09    6.326295e-10    1.480000e+00    8.289295e-01    5.061338e-01
    2.694455e+00    2.633793e+02    2.413296e+01    2.290648e+09    4.517972e-09    6.296195e-13    4.130352e-09    6.329255e-10    1.490000e+00    8.289295e-01    5.130805e-01
    2.651342e+00    2.602552e+02    2.478669e+01    2.314445e+09    4.519159e-09    6.488140e-13    4.134511e-09    6.332155e-10    1.500000e+00    8.289295e-01    5.200183e-01
    2.609467e+00    2.571638e+02    2.544731e+01    2.338007e+09    4.520306e-09    6.684825e-13    4.138613e-09    6.335000e-10    1.510000e+00    8.289295e-01    5.269475e-01
    2.568775e+00    2.541045e+02    2.611474e+01    2.361335e+09    4.521416e-09    6.886385e-13    4.142661e-09    6.337790e-10    1.520000e+00    8.289295e-01    5.338683e-01
    2.529219e+00    2.510769e+02    2.678894e+01    2.384430e+09    4.522489e-09    7.092945e-13    4.146656e-09    6.340530e-10    1.530000e+00    8.289295e-01    5.407806e-01
    2.490752e+00    2.480802e+02    2.746982e+01    2.407295e+09    4.523527e-09    7.304650e-13    4.150600e-09    6.343220e-10    1.540000e+00    8.289295e-01    5.476847e-01
    2.453328e+00    2.451141e+02    2.815733e+01    2.429929e+09    4.524531e-09    7.521630e-13    4.154496e-09    6.345865e-10    1.550000e+00    8.289295e-01    5.545807e-01
    2.416909e+00    2.421781e+02    2.885138e+01    2.452337e+09    4.525503e-09    7.744040e-13    4.158343e-09    6.348460e-10    1.560000e+00    8.289295e-01    5.614688e-01
    2.381451e+00    2.392713e+02    2.955193e+01    2.474517e+09    4.526442e-09    7.972025e-13    4.162145e-09    6.351015e-10    1.570000e+00    8.289295e-01    5.683490e-01
    2.346920e+00    2.363939e+02    3.025889e+01    2.496475e+09    4.527352e-09    8.205740e-13    4.165903e-09    6.353525e-10    1.580000e+00    8.289295e-01    5.752216e-01
    2.313281e+00    2.335450e+02    3.097221e+01    2.518209e+09    4.528233e-09    8.445345e-13    4.169617e-09    6.355995e-10    1.590000e+00    8.289295e-01    5.820867e-01
    2.280496e+00    2.307241e+02    3.169182e+01    2.539721e+09    4.529085e-09    8.691000e-13    4.173290e-09    6.358420e-10    1.600000e+00    8.289295e-01    5.889443e-01
    2.248536e+00    2.279310e+02    3.241765e+01    2.561014e+09    4.529909e-09    8.942880e-13    4.176924e-09    6.360810e-10    1.610000e+00    8.289295e-01    5.957947e-01
    2.217371e+00    2.251652e+02    3.314964e+01    2.582089e+09    4.530708e-09    9.201155e-13    4.180518e-09    6.363165e-10    1.620000e+00    8.289295e-01    6.026379e-01
    2.186972e+00    2.224263e+02    3.388773e+01    2.602949e+09    4.531479e-09    9.466010e-13    4.184074e-09    6.365485e-10    1.630000e+00    8.289295e-01    6.094741e-01
    2.157309e+00    2.197139e+02    3.463184e+01    2.623593e+09    4.532228e-09    9.737630e-13    4.187594e-09    6.367765e-10    1.640000e+00    8.289295e-01    6.163035e-01
    2.128357e+00    2.170275e+02    3.538194e+01    2.644023e+09    4.532951e-09    1.001621e-12    4.191078e-09    6.370015e-10    1.650000e+00    8.289295e-01    6.231262e-01
