# GF180MCU-D pfet_03v3 gm/ID Processed Lookup Table
# Corner: fs
# Temperature: 85C
# W = 2.0 um
# L = 3.5 um (3500 nm)
# Columns: gm/id [1/V]  gm/gds [V/V]  id/W [A/m]  ft [Hz]  Cgg/W [F/m]  Cgd/W [F/m]  Cgs/W [F/m]  Cdb/W [F/m]  vgs [V]  vth [V]  vdsat [V]
# vdsat = BSIM saturation voltage (|VDS|_sat, positive); use for headroom / saturation / cascode-bias calculations
#           gm/id          gm/gds            id/W              ft           Cgg/W           Cgd/W           Cgs/W           Cdb/W             vgs             vth           vdsat
    6.400990e-01    4.377358e+00    1.511201e+01    1.363825e+08    1.128836e-08    1.676369e-10    1.117345e-08    2.026458e-09   -3.300000e+00    7.996821e-01    1.890705e+00
    6.452989e-01    4.515381e+00    1.501528e+01    1.366399e+08    1.128592e-08    1.621399e-10    1.116948e-08    2.025893e-09   -3.290000e+00    7.996821e-01    1.882207e+00
    6.505605e-01    4.661112e+00    1.491822e+01    1.368921e+08    1.128357e-08    1.568330e-10    1.116541e-08    2.025328e-09   -3.280000e+00    7.996821e-01    1.873720e+00
    6.558725e-01    4.815126e+00    1.482109e+01    1.371386e+08    1.128132e-08    1.517099e-10    1.116123e-08    2.024761e-09   -3.270000e+00    7.996821e-01    1.865243e+00
    6.612371e-01    4.978046e+00    1.472381e+01    1.373791e+08    1.127916e-08    1.467644e-10    1.115694e-08    2.024195e-09   -3.260000e+00    7.996821e-01    1.856777e+00
    6.666542e-01    5.150557e+00    1.462637e+01    1.376134e+08    1.127708e-08    1.419906e-10    1.115258e-08    2.023628e-09   -3.250000e+00    7.996821e-01    1.848321e+00
    6.721218e-01    5.333390e+00    1.452880e+01    1.378408e+08    1.127509e-08    1.373828e-10    1.114811e-08    2.023062e-09   -3.240000e+00    7.996821e-01    1.839875e+00
    6.776387e-01    5.527347e+00    1.443107e+01    1.380609e+08    1.127318e-08    1.329352e-10    1.114355e-08    2.022496e-09   -3.230000e+00    7.996821e-01    1.831439e+00
    6.832030e-01    5.733294e+00    1.433322e+01    1.382731e+08    1.127135e-08    1.286425e-10    1.113892e-08    2.021931e-09   -3.220000e+00    7.996821e-01    1.823013e+00
    6.888131e-01    5.952173e+00    1.423523e+01    1.384770e+08    1.126959e-08    1.244991e-10    1.113419e-08    2.021366e-09   -3.210000e+00    7.996821e-01    1.814598e+00
    6.944665e-01    6.184998e+00    1.413711e+01    1.386720e+08    1.126791e-08    1.205000e-10    1.112940e-08    2.020802e-09   -3.200000e+00    7.996821e-01    1.806193e+00
    7.001614e-01    6.432873e+00    1.403887e+01    1.388576e+08    1.126629e-08    1.166401e-10    1.112452e-08    2.020240e-09   -3.190000e+00    7.996821e-01    1.797798e+00
    7.058948e-01    6.696985e+00    1.394052e+01    1.390330e+08    1.126474e-08    1.129145e-10    1.111956e-08    2.019679e-09   -3.180000e+00    7.996821e-01    1.789413e+00
    7.116633e-01    6.978612e+00    1.384206e+01    1.391975e+08    1.126326e-08    1.093185e-10    1.111453e-08    2.019120e-09   -3.170000e+00    7.996821e-01    1.781038e+00
    7.174644e-01    7.279131e+00    1.374351e+01    1.393506e+08    1.126184e-08    1.058475e-10    1.110944e-08    2.018562e-09   -3.160000e+00    7.996821e-01    1.772673e+00
    7.232946e-01    7.600029e+00    1.364486e+01    1.394915e+08    1.126047e-08    1.024970e-10    1.110427e-08    2.018005e-09   -3.150000e+00    7.996821e-01    1.764318e+00
    7.291498e-01    7.942887e+00    1.354613e+01    1.396194e+08    1.125916e-08    9.926275e-11    1.109904e-08    2.017451e-09   -3.140000e+00    7.996821e-01    1.755974e+00
    7.350267e-01    8.309396e+00    1.344732e+01    1.397336e+08    1.125792e-08    9.614060e-11    1.109374e-08    2.016898e-09   -3.130000e+00    7.996821e-01    1.747639e+00
    7.409208e-01    8.701360e+00    1.334845e+01    1.398333e+08    1.125672e-08    9.312650e-11    1.108838e-08    2.016347e-09   -3.120000e+00    7.996821e-01    1.739314e+00
    7.468285e-01    9.120687e+00    1.324952e+01    1.399180e+08    1.125557e-08    9.021655e-11    1.108296e-08    2.015798e-09   -3.110000e+00    7.996821e-01    1.731000e+00
    7.527452e-01    9.569397e+00    1.315055e+01    1.399867e+08    1.125447e-08    8.740700e-11    1.107749e-08    2.015252e-09   -3.100000e+00    7.996821e-01    1.722695e+00
    7.586664e-01    1.004960e+01    1.305154e+01    1.400387e+08    1.125342e-08    8.469420e-11    1.107196e-08    2.014707e-09   -3.090000e+00    7.996821e-01    1.714400e+00
    7.645878e-01    1.056352e+01    1.295252e+01    1.400735e+08    1.125241e-08    8.207470e-11    1.106637e-08    2.014165e-09   -3.080000e+00    7.996821e-01    1.706115e+00
    7.705053e-01    1.111345e+01    1.285348e+01    1.400903e+08    1.125145e-08    7.954500e-11    1.106073e-08    2.013625e-09   -3.070000e+00    7.996821e-01    1.697840e+00
    7.764144e-01    1.170176e+01    1.275445e+01    1.400886e+08    1.125052e-08    7.710195e-11    1.105504e-08    2.013087e-09   -3.060000e+00    7.996821e-01    1.689575e+00
    7.823112e-01    1.233090e+01    1.265543e+01    1.400678e+08    1.124964e-08    7.474235e-11    1.104930e-08    2.012552e-09   -3.050000e+00    7.996821e-01    1.681320e+00
    7.881920e-01    1.300334e+01    1.255644e+01    1.400273e+08    1.124879e-08    7.246315e-11    1.104351e-08    2.012018e-09   -3.040000e+00    7.996821e-01    1.673074e+00
    7.940525e-01    1.372157e+01    1.245750e+01    1.399670e+08    1.124798e-08    7.026145e-11    1.103767e-08    2.011487e-09   -3.030000e+00    7.996821e-01    1.664839e+00
    7.998908e-01    1.448809e+01    1.235860e+01    1.398865e+08    1.124720e-08    6.813445e-11    1.103179e-08    2.010959e-09   -3.020000e+00    7.996821e-01    1.656613e+00
    8.057030e-01    1.530536e+01    1.225979e+01    1.397856e+08    1.124646e-08    6.607935e-11    1.102587e-08    2.010432e-09   -3.010000e+00    7.996821e-01    1.648397e+00
    8.114872e-01    1.617576e+01    1.216106e+01    1.396642e+08    1.124574e-08    6.409360e-11    1.101990e-08    2.009908e-09   -3.000000e+00    7.996821e-01    1.640190e+00
    8.172416e-01    1.710164e+01    1.206243e+01    1.395223e+08    1.124506e-08    6.217465e-11    1.101388e-08    2.009386e-09   -2.990000e+00    7.996821e-01    1.631994e+00
    8.229646e-01    1.808515e+01    1.196391e+01    1.393599e+08    1.124440e-08    6.032005e-11    1.100783e-08    2.008866e-09   -2.980000e+00    7.996821e-01    1.623807e+00
    8.286559e-01    1.912834e+01    1.186551e+01    1.391774e+08    1.124377e-08    5.852750e-11    1.100174e-08    2.008349e-09   -2.970000e+00    7.996821e-01    1.615630e+00
    8.343140e-01    2.023302e+01    1.176726e+01    1.389749e+08    1.124316e-08    5.679475e-11    1.099560e-08    2.007833e-09   -2.960000e+00    7.996821e-01    1.607462e+00
    8.399406e-01    2.140087e+01    1.166916e+01    1.387529e+08    1.124259e-08    5.511955e-11    1.098943e-08    2.007321e-09   -2.950000e+00    7.996821e-01    1.599304e+00
    8.455351e-01    2.263323e+01    1.157123e+01    1.385118e+08    1.124203e-08    5.349990e-11    1.098322e-08    2.006810e-09   -2.940000e+00    7.996821e-01    1.591156e+00
    8.510994e-01    2.393124e+01    1.147349e+01    1.382521e+08    1.124150e-08    5.193375e-11    1.097697e-08    2.006301e-09   -2.930000e+00    7.996821e-01    1.583017e+00
    8.566343e-01    2.529570e+01    1.137594e+01    1.379744e+08    1.124099e-08    5.041915e-11    1.097069e-08    2.005794e-09   -2.920000e+00    7.996821e-01    1.574888e+00
    8.621424e-01    2.672716e+01    1.127860e+01    1.376794e+08    1.124049e-08    4.895429e-11    1.096437e-08    2.005289e-09   -2.910000e+00    7.996821e-01    1.566769e+00
    8.676260e-01    2.822583e+01    1.118147e+01    1.373677e+08    1.124001e-08    4.753732e-11    1.095802e-08    2.004786e-09   -2.900000e+00    7.996821e-01    1.558659e+00
    8.730871e-01    2.979161e+01    1.108457e+01    1.370400e+08    1.123956e-08    4.616655e-11    1.095164e-08    2.004285e-09   -2.890000e+00    7.996821e-01    1.550559e+00
    8.785288e-01    3.142409e+01    1.098792e+01    1.366971e+08    1.123912e-08    4.484031e-11    1.094522e-08    2.003786e-09   -2.880000e+00    7.996821e-01    1.542468e+00
    8.839536e-01    3.312254e+01    1.089151e+01    1.363397e+08    1.123868e-08    4.355700e-11    1.093877e-08    2.003289e-09   -2.870000e+00    7.996821e-01    1.534387e+00
    8.893655e-01    3.488598e+01    1.079537e+01    1.359684e+08    1.123827e-08    4.231509e-11    1.093228e-08    2.002792e-09   -2.860000e+00    7.996821e-01    1.526315e+00
    8.947674e-01    3.671312e+01    1.069949e+01    1.355842e+08    1.123788e-08    4.111310e-11    1.092576e-08    2.002299e-09   -2.850000e+00    7.996821e-01    1.518252e+00
    9.001622e-01    3.860242e+01    1.060389e+01    1.351876e+08    1.123749e-08    3.994960e-11    1.091922e-08    2.001806e-09   -2.840000e+00    7.996821e-01    1.510199e+00
    9.055530e-01    4.055214e+01    1.050859e+01    1.347794e+08    1.123712e-08    3.882324e-11    1.091264e-08    2.001316e-09   -2.830000e+00    7.996821e-01    1.502156e+00
    9.109437e-01    4.256034e+01    1.041358e+01    1.343603e+08    1.123676e-08    3.773269e-11    1.090603e-08    2.000827e-09   -2.820000e+00    7.996821e-01    1.494121e+00
    9.163377e-01    4.462491e+01    1.031887e+01    1.339309e+08    1.123640e-08    3.667668e-11    1.089940e-08    2.000339e-09   -2.810000e+00    7.996821e-01    1.486097e+00
    9.217378e-01    4.674359e+01    1.022447e+01    1.334917e+08    1.123606e-08    3.565400e-11    1.089273e-08    1.999852e-09   -2.800000e+00    7.996821e-01    1.478081e+00
    9.271474e-01    4.891406e+01    1.013039e+01    1.330435e+08    1.123573e-08    3.466346e-11    1.088603e-08    1.999367e-09   -2.790000e+00    7.996821e-01    1.470075e+00
    9.325695e-01    5.113391e+01    1.003663e+01    1.325869e+08    1.123540e-08    3.370396e-11    1.087931e-08    1.998883e-09   -2.780000e+00    7.996821e-01    1.462078e+00
    9.380073e-01    5.340067e+01    9.943190e+00    1.321223e+08    1.123508e-08    3.277440e-11    1.087255e-08    1.998401e-09   -2.770000e+00    7.996821e-01    1.454091e+00
    9.434640e-01    5.571190e+01    9.850090e+00    1.316503e+08    1.123476e-08    3.187373e-11    1.086577e-08    1.997919e-09   -2.760000e+00    7.996821e-01    1.446113e+00
    9.489415e-01    5.806515e+01    9.757330e+00    1.311712e+08    1.123445e-08    3.100095e-11    1.085896e-08    1.997439e-09   -2.750000e+00    7.996821e-01    1.438144e+00
    9.544434e-01    6.045801e+01    9.664910e+00    1.306857e+08    1.123415e-08    3.015510e-11    1.085213e-08    1.996959e-09   -2.740000e+00    7.996821e-01    1.430184e+00
    9.599727e-01    6.288815e+01    9.572835e+00    1.301940e+08    1.123385e-08    2.933524e-11    1.084526e-08    1.996480e-09   -2.730000e+00    7.996821e-01    1.422234e+00
    9.655310e-01    6.535331e+01    9.481115e+00    1.296966e+08    1.123356e-08    2.854047e-11    1.083837e-08    1.996003e-09   -2.720000e+00    7.996821e-01    1.414293e+00
    9.711212e-01    6.785131e+01    9.389750e+00    1.291938e+08    1.123327e-08    2.776993e-11    1.083145e-08    1.995525e-09   -2.710000e+00    7.996821e-01    1.406361e+00
    9.767452e-01    7.038006e+01    9.298745e+00    1.286859e+08    1.123298e-08    2.702279e-11    1.082450e-08    1.995050e-09   -2.700000e+00    7.996821e-01    1.398438e+00
    9.824057e-01    7.293767e+01    9.208105e+00    1.281733e+08    1.123269e-08    2.629826e-11    1.081753e-08    1.994574e-09   -2.690000e+00    7.996821e-01    1.390524e+00
    9.881052e-01    7.552225e+01    9.117825e+00    1.276562e+08    1.123240e-08    2.559556e-11    1.081053e-08    1.994099e-09   -2.680000e+00    7.996821e-01    1.382619e+00
    9.938458e-01    7.813217e+01    9.027915e+00    1.271350e+08    1.123211e-08    2.491395e-11    1.080350e-08    1.993624e-09   -2.670000e+00    7.996821e-01    1.374724e+00
    9.996291e-01    8.076592e+01    8.938380e+00    1.266098e+08    1.123183e-08    2.425272e-11    1.079645e-08    1.993150e-09   -2.660000e+00    7.996821e-01    1.366838e+00
    1.005458e+00    8.342195e+01    8.849215e+00    1.260808e+08    1.123154e-08    2.361118e-11    1.078937e-08    1.992676e-09   -2.650000e+00    7.996821e-01    1.358960e+00
    1.011333e+00    8.609906e+01    8.760430e+00    1.255484e+08    1.123126e-08    2.298868e-11    1.078227e-08    1.992202e-09   -2.640000e+00    7.996821e-01    1.351092e+00
    1.017257e+00    8.879606e+01    8.672025e+00    1.250126e+08    1.123097e-08    2.238457e-11    1.077513e-08    1.991729e-09   -2.630000e+00    7.996821e-01    1.343233e+00
    1.023232e+00    9.151193e+01    8.583995e+00    1.244737e+08    1.123068e-08    2.179823e-11    1.076797e-08    1.991256e-09   -2.620000e+00    7.996821e-01    1.335383e+00
    1.029259e+00    9.424575e+01    8.496355e+00    1.239318e+08    1.123039e-08    2.122908e-11    1.076079e-08    1.990783e-09   -2.610000e+00    7.996821e-01    1.327542e+00
    1.035341e+00    9.699683e+01    8.409100e+00    1.233871e+08    1.123009e-08    2.067655e-11    1.075358e-08    1.990310e-09   -2.600000e+00    7.996821e-01    1.319710e+00
    1.041479e+00    9.976438e+01    8.322230e+00    1.228396e+08    1.122980e-08    2.014009e-11    1.074633e-08    1.989837e-09   -2.590000e+00    7.996821e-01    1.311886e+00
    1.047674e+00    1.025480e+02    8.235750e+00    1.222896e+08    1.122949e-08    1.961918e-11    1.073907e-08    1.989363e-09   -2.580000e+00    7.996821e-01    1.304072e+00
    1.053929e+00    1.053470e+02    8.149665e+00    1.217371e+08    1.122919e-08    1.911329e-11    1.073178e-08    1.988891e-09   -2.570000e+00    7.996821e-01    1.296267e+00
    1.060245e+00    1.081613e+02    8.063970e+00    1.211823e+08    1.122887e-08    1.862194e-11    1.072446e-08    1.988417e-09   -2.560000e+00    7.996821e-01    1.288470e+00
    1.066624e+00    1.109905e+02    7.978670e+00    1.206252e+08    1.122855e-08    1.814466e-11    1.071711e-08    1.987943e-09   -2.550000e+00    7.996821e-01    1.280683e+00
    1.073067e+00    1.138344e+02    7.893765e+00    1.200660e+08    1.122823e-08    1.768099e-11    1.070974e-08    1.987468e-09   -2.540000e+00    7.996821e-01    1.272904e+00
    1.079577e+00    1.166930e+02    7.809255e+00    1.195046e+08    1.122791e-08    1.723049e-11    1.070235e-08    1.986993e-09   -2.530000e+00    7.996821e-01    1.265135e+00
    1.086154e+00    1.195662e+02    7.725150e+00    1.189414e+08    1.122756e-08    1.679274e-11    1.069492e-08    1.986517e-09   -2.520000e+00    7.996821e-01    1.257374e+00
    1.092801e+00    1.224543e+02    7.641445e+00    1.183762e+08    1.122722e-08    1.636732e-11    1.068747e-08    1.986041e-09   -2.510000e+00    7.996821e-01    1.249622e+00
    1.099519e+00    1.253570e+02    7.558140e+00    1.178091e+08    1.122688e-08    1.595385e-11    1.067999e-08    1.985565e-09   -2.500000e+00    7.996821e-01    1.241878e+00
    1.106309e+00    1.282748e+02    7.475240e+00    1.172403e+08    1.122651e-08    1.555194e-11    1.067248e-08    1.985086e-09   -2.490000e+00    7.996821e-01    1.234144e+00
    1.113175e+00    1.312079e+02    7.392740e+00    1.166697e+08    1.122615e-08    1.516122e-11    1.066495e-08    1.984608e-09   -2.480000e+00    7.996821e-01    1.226418e+00
    1.120115e+00    1.341564e+02    7.310650e+00    1.160974e+08    1.122578e-08    1.478135e-11    1.065738e-08    1.984129e-09   -2.470000e+00    7.996821e-01    1.218701e+00
    1.127134e+00    1.371209e+02    7.228965e+00    1.155235e+08    1.122539e-08    1.441198e-11    1.064979e-08    1.983648e-09   -2.460000e+00    7.996821e-01    1.210993e+00
    1.134231e+00    1.401015e+02    7.147690e+00    1.149479e+08    1.122500e-08    1.405277e-11    1.064217e-08    1.983167e-09   -2.450000e+00    7.996821e-01    1.203294e+00
    1.141411e+00    1.430989e+02    7.066825e+00    1.143710e+08    1.122459e-08    1.370342e-11    1.063452e-08    1.982684e-09   -2.440000e+00    7.996821e-01    1.195603e+00
    1.148672e+00    1.461134e+02    6.986370e+00    1.137924e+08    1.122418e-08    1.336362e-11    1.062685e-08    1.982200e-09   -2.430000e+00    7.996821e-01    1.187921e+00
    1.156019e+00    1.491454e+02    6.906325e+00    1.132124e+08    1.122375e-08    1.303307e-11    1.061914e-08    1.981715e-09   -2.420000e+00    7.996821e-01    1.180247e+00
    1.163453e+00    1.521956e+02    6.826690e+00    1.126310e+08    1.122332e-08    1.271148e-11    1.061140e-08    1.981229e-09   -2.410000e+00    7.996821e-01    1.172583e+00
    1.170974e+00    1.552646e+02    6.747475e+00    1.120481e+08    1.122288e-08    1.239857e-11    1.060364e-08    1.980741e-09   -2.400000e+00    7.996821e-01    1.164926e+00
    1.178586e+00    1.583527e+02    6.668670e+00    1.114639e+08    1.122242e-08    1.209409e-11    1.059585e-08    1.980251e-09   -2.390000e+00    7.996821e-01    1.157279e+00
    1.186290e+00    1.614607e+02    6.590280e+00    1.108783e+08    1.122195e-08    1.179777e-11    1.058802e-08    1.979760e-09   -2.380000e+00    7.996821e-01    1.149640e+00
    1.194087e+00    1.645893e+02    6.512310e+00    1.102914e+08    1.122146e-08    1.150937e-11    1.058017e-08    1.979267e-09   -2.370000e+00    7.996821e-01    1.142010e+00
    1.201980e+00    1.677389e+02    6.434755e+00    1.097032e+08    1.122097e-08    1.122864e-11    1.057229e-08    1.978773e-09   -2.360000e+00    7.996821e-01    1.134388e+00
    1.209972e+00    1.709104e+02    6.357620e+00    1.091137e+08    1.122046e-08    1.095535e-11    1.056437e-08    1.978277e-09   -2.350000e+00    7.996821e-01    1.126774e+00
    1.218063e+00    1.741043e+02    6.280905e+00    1.085230e+08    1.121993e-08    1.068928e-11    1.055643e-08    1.977779e-09   -2.340000e+00    7.996821e-01    1.119170e+00
    1.226255e+00    1.773214e+02    6.204610e+00    1.079310e+08    1.121939e-08    1.043022e-11    1.054845e-08    1.977279e-09   -2.330000e+00    7.996821e-01    1.111574e+00
    1.234552e+00    1.805625e+02    6.128735e+00    1.073378e+08    1.121883e-08    1.017794e-11    1.054044e-08    1.976777e-09   -2.320000e+00    7.996821e-01    1.103986e+00
    1.242956e+00    1.838283e+02    6.053285e+00    1.067434e+08    1.121827e-08    9.932260e-12    1.053239e-08    1.976273e-09   -2.310000e+00    7.996821e-01    1.096407e+00
    1.251467e+00    1.871195e+02    5.978260e+00    1.061478e+08    1.121769e-08    9.692970e-12    1.052432e-08    1.975767e-09   -2.300000e+00    7.996821e-01    1.088836e+00
    1.260089e+00    1.904368e+02    5.903655e+00    1.055510e+08    1.121708e-08    9.459885e-12    1.051622e-08    1.975258e-09   -2.290000e+00    7.996821e-01    1.081273e+00
    1.268824e+00    1.937811e+02    5.829475e+00    1.049530e+08    1.121647e-08    9.232825e-12    1.050808e-08    1.974748e-09   -2.280000e+00    7.996821e-01    1.073720e+00
    1.277675e+00    1.971533e+02    5.755725e+00    1.043540e+08    1.121584e-08    9.011610e-12    1.049990e-08    1.974235e-09   -2.270000e+00    7.996821e-01    1.066174e+00
    1.286644e+00    2.005540e+02    5.682395e+00    1.037537e+08    1.121518e-08    8.796070e-12    1.049170e-08    1.973719e-09   -2.260000e+00    7.996821e-01    1.058637e+00
    1.295731e+00    2.039841e+02    5.609500e+00    1.031522e+08    1.121452e-08    8.586040e-12    1.048345e-08    1.973201e-09   -2.250000e+00    7.996821e-01    1.051108e+00
    1.304943e+00    2.074447e+02    5.537030e+00    1.025497e+08    1.121383e-08    8.381360e-12    1.047517e-08    1.972680e-09   -2.240000e+00    7.996821e-01    1.043588e+00
    1.314280e+00    2.109363e+02    5.464990e+00    1.019461e+08    1.121313e-08    8.181880e-12    1.046686e-08    1.972156e-09   -2.230000e+00    7.996821e-01    1.036076e+00
    1.323744e+00    2.144599e+02    5.393380e+00    1.013413e+08    1.121240e-08    7.987440e-12    1.045851e-08    1.971630e-09   -2.220000e+00    7.996821e-01    1.028572e+00
