# GF180MCU-D pfet_03v3 gm/ID Processed Lookup Table
# Corner: fs
# Temperature: 85C
# W = 2.0 um
# L = 1.5 um (1500 nm)
# Columns: gm/id [1/V]  gm/gds [V/V]  id/W [A/m]  ft [Hz]  Cgg/W [F/m]  Cgd/W [F/m]  Cgs/W [F/m]  Cdb/W [F/m]  vgs [V]  vth [V]  vdsat [V]
# vdsat = BSIM saturation voltage (|VDS|_sat, positive); use for headroom / saturation / cascode-bias calculations
#           gm/id          gm/gds            id/W              ft           Cgg/W           Cgd/W           Cgs/W           Cdb/W             vgs             vth           vdsat
    6.064314e-01    3.487245e+00    3.577623e+01    7.041303e+08    4.903919e-09    8.631560e-11    4.778134e-09    8.557085e-10   -3.300000e+00    8.062432e-01    1.940558e+00
    6.113322e-01    3.578187e+00    3.555927e+01    7.056973e+08    4.902660e-09    8.349035e-11    4.776838e-09    8.554660e-10   -3.290000e+00    8.062432e-01    1.932000e+00
    6.162982e-01    3.673400e+00    3.534145e+01    7.072468e+08    4.901449e-09    8.076050e-11    4.775488e-09    8.552225e-10   -3.280000e+00    8.062432e-01    1.923451e+00
    6.213181e-01    3.773161e+00    3.512344e+01    7.087775e+08    4.900285e-09    7.812315e-11    4.774088e-09    8.549785e-10   -3.270000e+00    8.062432e-01    1.914911e+00
    6.263961e-01    3.877762e+00    3.490500e+01    7.102884e+08    4.899165e-09    7.557545e-11    4.772638e-09    8.547340e-10   -3.260000e+00    8.062432e-01    1.906380e+00
    6.315318e-01    3.987522e+00    3.468615e+01    7.117785e+08    4.898089e-09    7.311460e-11    4.771141e-09    8.544890e-10   -3.250000e+00    8.062432e-01    1.897858e+00
    6.367253e-01    4.102786e+00    3.446690e+01    7.132462e+08    4.897055e-09    7.073780e-11    4.769596e-09    8.542445e-10   -3.240000e+00    8.062432e-01    1.889345e+00
    6.419761e-01    4.223924e+00    3.424724e+01    7.146898e+08    4.896062e-09    6.844235e-11    4.768007e-09    8.539995e-10   -3.230000e+00    8.062432e-01    1.880841e+00
    6.472839e-01    4.351323e+00    3.402718e+01    7.161081e+08    4.895108e-09    6.622565e-11    4.766375e-09    8.537545e-10   -3.220000e+00    8.062432e-01    1.872346e+00
    6.526481e-01    4.485419e+00    3.380674e+01    7.174991e+08    4.894193e-09    6.408505e-11    4.764700e-09    8.535095e-10   -3.210000e+00    8.062432e-01    1.863860e+00
    6.580679e-01    4.626661e+00    3.358591e+01    7.188608e+08    4.893314e-09    6.201810e-11    4.762985e-09    8.532655e-10   -3.200000e+00    8.062432e-01    1.855384e+00
    6.635425e-01    4.775541e+00    3.336470e+01    7.201913e+08    4.892471e-09    6.002235e-11    4.761230e-09    8.530210e-10   -3.190000e+00    8.062432e-01    1.846916e+00
    6.690708e-01    4.932585e+00    3.314313e+01    7.214883e+08    4.891662e-09    5.809535e-11    4.759436e-09    8.527775e-10   -3.180000e+00    8.062432e-01    1.838456e+00
    6.746514e-01    5.098354e+00    3.292120e+01    7.227494e+08    4.890886e-09    5.623480e-11    4.757607e-09    8.525345e-10   -3.170000e+00    8.062432e-01    1.830006e+00
    6.802831e-01    5.273448e+00    3.269893e+01    7.239720e+08    4.890142e-09    5.443840e-11    4.755742e-09    8.522915e-10   -3.160000e+00    8.062432e-01    1.821565e+00
    6.859638e-01    5.458508e+00    3.247631e+01    7.251535e+08    4.889429e-09    5.270395e-11    4.753842e-09    8.520500e-10   -3.150000e+00    8.062432e-01    1.813133e+00
    6.916917e-01    5.654215e+00    3.225338e+01    7.262908e+08    4.888745e-09    5.102940e-11    4.751908e-09    8.518085e-10   -3.140000e+00    8.062432e-01    1.804709e+00
    6.974647e-01    5.861292e+00    3.203013e+01    7.273809e+08    4.888090e-09    4.941255e-11    4.749943e-09    8.515680e-10   -3.130000e+00    8.062432e-01    1.796294e+00
    7.032802e-01    6.080505e+00    3.180659e+01    7.284205e+08    4.887462e-09    4.785145e-11    4.747947e-09    8.513285e-10   -3.120000e+00    8.062432e-01    1.787888e+00
    7.091356e-01    6.312661e+00    3.158276e+01    7.294062e+08    4.886861e-09    4.634414e-11    4.745919e-09    8.510895e-10   -3.110000e+00    8.062432e-01    1.779491e+00
    7.150278e-01    6.558609e+00    3.135866e+01    7.303344e+08    4.886285e-09    4.488871e-11    4.743864e-09    8.508515e-10   -3.100000e+00    8.062432e-01    1.771103e+00
    7.209539e-01    6.819235e+00    3.113432e+01    7.312016e+08    4.885734e-09    4.348334e-11    4.741779e-09    8.506145e-10   -3.090000e+00    8.062432e-01    1.762723e+00
    7.269100e-01    7.095461e+00    3.090974e+01    7.320038e+08    4.885205e-09    4.212626e-11    4.739667e-09    8.503785e-10   -3.080000e+00    8.062432e-01    1.754352e+00
    7.328932e-01    7.388246e+00    3.068495e+01    7.327374e+08    4.884700e-09    4.081573e-11    4.737528e-09    8.501435e-10   -3.070000e+00    8.062432e-01    1.745990e+00
    7.388991e-01    7.698567e+00    3.045997e+01    7.333984e+08    4.884216e-09    3.955011e-11    4.735363e-09    8.499095e-10   -3.060000e+00    8.062432e-01    1.737636e+00
    7.449241e-01    8.027426e+00    3.023482e+01    7.339828e+08    4.883753e-09    3.832779e-11    4.733174e-09    8.496765e-10   -3.050000e+00    8.062432e-01    1.729291e+00
    7.509639e-01    8.375831e+00    3.000953e+01    7.344870e+08    4.883309e-09    3.714722e-11    4.730960e-09    8.494445e-10   -3.040000e+00    8.062432e-01    1.720955e+00
    7.570144e-01    8.744796e+00    2.978411e+01    7.349070e+08    4.882885e-09    3.600690e-11    4.728723e-09    8.492135e-10   -3.030000e+00    8.062432e-01    1.712627e+00
    7.630718e-01    9.135320e+00    2.955860e+01    7.352397e+08    4.882479e-09    3.490537e-11    4.726463e-09    8.489835e-10   -3.020000e+00    8.062432e-01    1.704308e+00
    7.691316e-01    9.548378e+00    2.933301e+01    7.354812e+08    4.882091e-09    3.384126e-11    4.724181e-09    8.487550e-10   -3.010000e+00    8.062432e-01    1.695998e+00
    7.751900e-01    9.984906e+00    2.910739e+01    7.356288e+08    4.881719e-09    3.281321e-11    4.721877e-09    8.485270e-10   -3.000000e+00    8.062432e-01    1.687696e+00
    7.812431e-01    1.044578e+01    2.888175e+01    7.356795e+08    4.881363e-09    3.181991e-11    4.719552e-09    8.483005e-10   -2.990000e+00    8.062432e-01    1.679402e+00
    7.872873e-01    1.093182e+01    2.865612e+01    7.356308e+08    4.881023e-09    3.086012e-11    4.717207e-09    8.480750e-10   -2.980000e+00    8.062432e-01    1.671118e+00
    7.933191e-01    1.144374e+01    2.843055e+01    7.354809e+08    4.880697e-09    2.993262e-11    4.714842e-09    8.478505e-10   -2.970000e+00    8.062432e-01    1.662841e+00
    7.993357e-01    1.198215e+01    2.820505e+01    7.352280e+08    4.880386e-09    2.903626e-11    4.712458e-09    8.476270e-10   -2.960000e+00    8.062432e-01    1.654573e+00
    8.053344e-01    1.254755e+01    2.797965e+01    7.348709e+08    4.880087e-09    2.816989e-11    4.710055e-09    8.474045e-10   -2.950000e+00    8.062432e-01    1.646314e+00
    8.113128e-01    1.314029e+01    2.775440e+01    7.344091e+08    4.879802e-09    2.733246e-11    4.707633e-09    8.471835e-10   -2.940000e+00    8.062432e-01    1.638063e+00
    8.172693e-01    1.376059e+01    2.752931e+01    7.338424e+08    4.879528e-09    2.652291e-11    4.705195e-09    8.469630e-10   -2.930000e+00    8.062432e-01    1.629821e+00
    8.232026e-01    1.440850e+01    2.730443e+01    7.331712e+08    4.879266e-09    2.574023e-11    4.702739e-09    8.467440e-10   -2.920000e+00    8.062432e-01    1.621587e+00
    8.291118e-01    1.508390e+01    2.707978e+01    7.323963e+08    4.879016e-09    2.498345e-11    4.700265e-09    8.465255e-10   -2.910000e+00    8.062432e-01    1.613361e+00
    8.349968e-01    1.578651e+01    2.685540e+01    7.315191e+08    4.878776e-09    2.425165e-11    4.697775e-09    8.463085e-10   -2.900000e+00    8.062432e-01    1.605144e+00
    8.408578e-01    1.651589e+01    2.663131e+01    7.305414e+08    4.878545e-09    2.354393e-11    4.695268e-09    8.460920e-10   -2.890000e+00    8.062432e-01    1.596935e+00
    8.466951e-01    1.727142e+01    2.640754e+01    7.294650e+08    4.878324e-09    2.285941e-11    4.692747e-09    8.458765e-10   -2.880000e+00    8.062432e-01    1.588734e+00
    8.525099e-01    1.805234e+01    2.618413e+01    7.282927e+08    4.878112e-09    2.219728e-11    4.690209e-09    8.456620e-10   -2.870000e+00    8.062432e-01    1.580542e+00
    8.583038e-01    1.885777e+01    2.596111e+01    7.270273e+08    4.877909e-09    2.155672e-11    4.687657e-09    8.454490e-10   -2.860000e+00    8.062432e-01    1.572358e+00
    8.640787e-01    1.968665e+01    2.573849e+01    7.256718e+08    4.877713e-09    2.093696e-11    4.685089e-09    8.452360e-10   -2.850000e+00    8.062432e-01    1.564182e+00
    8.698366e-01    2.053788e+01    2.551631e+01    7.242296e+08    4.877525e-09    2.033727e-11    4.682507e-09    8.450245e-10   -2.840000e+00    8.062432e-01    1.556015e+00
    8.755800e-01    2.141021e+01    2.529460e+01    7.227039e+08    4.877344e-09    1.975693e-11    4.679910e-09    8.448135e-10   -2.830000e+00    8.062432e-01    1.547856e+00
    8.813117e-01    2.230238e+01    2.507337e+01    7.210984e+08    4.877169e-09    1.919524e-11    4.677299e-09    8.446035e-10   -2.820000e+00    8.062432e-01    1.539705e+00
    8.870342e-01    2.321305e+01    2.485266e+01    7.194164e+08    4.877002e-09    1.865155e-11    4.674675e-09    8.443945e-10   -2.810000e+00    8.062432e-01    1.531562e+00
    8.927507e-01    2.414088e+01    2.463247e+01    7.176619e+08    4.876840e-09    1.812522e-11    4.672037e-09    8.441860e-10   -2.800000e+00    8.062432e-01    1.523427e+00
    8.984643e-01    2.508451e+01    2.441285e+01    7.158382e+08    4.876684e-09    1.761563e-11    4.669385e-09    8.439780e-10   -2.790000e+00    8.062432e-01    1.515301e+00
    9.041781e-01    2.604262e+01    2.419380e+01    7.139489e+08    4.876532e-09    1.712220e-11    4.666721e-09    8.437710e-10   -2.780000e+00    8.062432e-01    1.507183e+00
    9.098956e-01    2.701391e+01    2.397535e+01    7.119976e+08    4.876386e-09    1.664435e-11    4.664043e-09    8.435645e-10   -2.770000e+00    8.062432e-01    1.499073e+00
    9.156195e-01    2.799715e+01    2.375751e+01    7.099874e+08    4.876243e-09    1.618154e-11    4.661353e-09    8.433590e-10   -2.760000e+00    8.062432e-01    1.490971e+00
    9.213532e-01    2.899112e+01    2.354030e+01    7.079214e+08    4.876106e-09    1.573324e-11    4.658650e-09    8.431540e-10   -2.750000e+00    8.062432e-01    1.482877e+00
    9.270996e-01    2.999475e+01    2.332374e+01    7.058029e+08    4.875972e-09    1.529895e-11    4.655934e-09    8.429495e-10   -2.740000e+00    8.062432e-01    1.474791e+00
    9.328626e-01    3.100699e+01    2.310783e+01    7.036351e+08    4.875840e-09    1.487818e-11    4.653206e-09    8.427460e-10   -2.730000e+00    8.062432e-01    1.466714e+00
    9.386442e-01    3.202692e+01    2.289261e+01    7.014202e+08    4.875713e-09    1.447045e-11    4.650466e-09    8.425425e-10   -2.720000e+00    8.062432e-01    1.458644e+00
    9.444481e-01    3.305367e+01    2.267808e+01    6.991614e+08    4.875588e-09    1.407532e-11    4.647714e-09    8.423395e-10   -2.710000e+00    8.062432e-01    1.450582e+00
    9.502768e-01    3.408648e+01    2.246425e+01    6.968608e+08    4.875466e-09    1.369234e-11    4.644950e-09    8.421375e-10   -2.700000e+00    8.062432e-01    1.442529e+00
    9.561332e-01    3.512467e+01    2.225114e+01    6.945208e+08    4.875346e-09    1.332111e-11    4.642174e-09    8.419355e-10   -2.690000e+00    8.062432e-01    1.434483e+00
    9.620201e-01    3.616770e+01    2.203875e+01    6.921438e+08    4.875228e-09    1.296121e-11    4.639385e-09    8.417345e-10   -2.680000e+00    8.062432e-01    1.426445e+00
    9.679401e-01    3.721504e+01    2.182710e+01    6.897317e+08    4.875112e-09    1.261227e-11    4.636586e-09    8.415335e-10   -2.670000e+00    8.062432e-01    1.418416e+00
    9.738957e-01    3.826632e+01    2.161621e+01    6.872864e+08    4.874997e-09    1.227390e-11    4.633775e-09    8.413325e-10   -2.660000e+00    8.062432e-01    1.410394e+00
    9.798893e-01    3.932116e+01    2.140607e+01    6.848098e+08    4.874883e-09    1.194574e-11    4.630952e-09    8.411325e-10   -2.650000e+00    8.062432e-01    1.402380e+00
    9.859235e-01    4.037930e+01    2.119670e+01    6.823034e+08    4.874770e-09    1.162745e-11    4.628117e-09    8.409325e-10   -2.640000e+00    8.062432e-01    1.394374e+00
    9.920005e-01    4.144059e+01    2.098811e+01    6.797686e+08    4.874657e-09    1.131870e-11    4.625272e-09    8.407330e-10   -2.630000e+00    8.062432e-01    1.386376e+00
    9.981225e-01    4.250489e+01    2.078030e+01    6.772072e+08    4.874546e-09    1.101916e-11    4.622415e-09    8.405335e-10   -2.620000e+00    8.062432e-01    1.378386e+00
    1.004292e+00    4.357210e+01    2.057328e+01    6.746202e+08    4.874434e-09    1.072852e-11    4.619546e-09    8.403345e-10   -2.610000e+00    8.062432e-01    1.370404e+00
    1.010510e+00    4.464223e+01    2.036707e+01    6.720092e+08    4.874323e-09    1.044650e-11    4.616667e-09    8.401355e-10   -2.600000e+00    8.062432e-01    1.362429e+00
    1.016781e+00    4.571529e+01    2.016166e+01    6.693749e+08    4.874211e-09    1.017279e-11    4.613776e-09    8.399365e-10   -2.590000e+00    8.062432e-01    1.354462e+00
    1.023104e+00    4.679135e+01    1.995707e+01    6.667186e+08    4.874098e-09    9.907110e-12    4.610873e-09    8.397380e-10   -2.580000e+00    8.062432e-01    1.346504e+00
    1.029484e+00    4.787052e+01    1.975330e+01    6.640413e+08    4.873985e-09    9.649215e-12    4.607960e-09    8.395395e-10   -2.570000e+00    8.062432e-01    1.338552e+00
    1.035920e+00    4.895294e+01    1.955036e+01    6.613437e+08    4.873871e-09    9.398840e-12    4.605034e-09    8.393410e-10   -2.560000e+00    8.062432e-01    1.330609e+00
    1.042416e+00    5.003877e+01    1.934825e+01    6.586267e+08    4.873756e-09    9.155730e-12    4.602099e-09    8.391425e-10   -2.550000e+00    8.062432e-01    1.322673e+00
    1.048974e+00    5.112820e+01    1.914698e+01    6.558911e+08    4.873640e-09    8.919655e-12    4.599151e-09    8.389440e-10   -2.540000e+00    8.062432e-01    1.314745e+00
    1.055595e+00    5.222147e+01    1.894656e+01    6.531379e+08    4.873521e-09    8.690380e-12    4.596193e-09    8.387455e-10   -2.530000e+00    8.062432e-01    1.306825e+00
    1.062281e+00    5.331880e+01    1.874699e+01    6.503672e+08    4.873402e-09    8.467680e-12    4.593222e-09    8.385470e-10   -2.520000e+00    8.062432e-01    1.298913e+00
    1.069033e+00    5.442044e+01    1.854827e+01    6.475801e+08    4.873280e-09    8.251350e-12    4.590241e-09    8.383485e-10   -2.510000e+00    8.062432e-01    1.291008e+00
    1.075855e+00    5.552665e+01    1.835042e+01    6.447767e+08    4.873156e-09    8.041180e-12    4.587248e-09    8.381495e-10   -2.500000e+00    8.062432e-01    1.283111e+00
    1.082747e+00    5.663774e+01    1.815343e+01    6.419580e+08    4.873030e-09    7.836975e-12    4.584244e-09    8.379510e-10   -2.490000e+00    8.062432e-01    1.275221e+00
    1.089711e+00    5.775397e+01    1.795730e+01    6.391241e+08    4.872901e-09    7.638535e-12    4.581228e-09    8.377520e-10   -2.480000e+00    8.062432e-01    1.267339e+00
    1.096750e+00    5.887566e+01    1.776206e+01    6.362757e+08    4.872770e-09    7.445680e-12    4.578202e-09    8.375525e-10   -2.470000e+00    8.062432e-01    1.259465e+00
    1.103865e+00    6.000310e+01    1.756770e+01    6.334132e+08    4.872636e-09    7.258230e-12    4.575163e-09    8.373530e-10   -2.460000e+00    8.062432e-01    1.251598e+00
    1.111058e+00    6.113661e+01    1.737422e+01    6.305369e+08    4.872498e-09    7.076020e-12    4.572113e-09    8.371535e-10   -2.450000e+00    8.062432e-01    1.243739e+00
    1.118331e+00    6.227652e+01    1.718162e+01    6.276471e+08    4.872358e-09    6.898875e-12    4.569051e-09    8.369535e-10   -2.440000e+00    8.062432e-01    1.235887e+00
    1.125685e+00    6.342312e+01    1.698992e+01    6.247441e+08    4.872213e-09    6.726640e-12    4.565977e-09    8.367535e-10   -2.430000e+00    8.062432e-01    1.228043e+00
    1.133123e+00    6.457677e+01    1.679912e+01    6.218284e+08    4.872066e-09    6.559160e-12    4.562892e-09    8.365525e-10   -2.420000e+00    8.062432e-01    1.220206e+00
    1.140647e+00    6.573781e+01    1.660921e+01    6.189003e+08    4.871914e-09    6.396285e-12    4.559796e-09    8.363515e-10   -2.410000e+00    8.062432e-01    1.212377e+00
    1.148258e+00    6.690654e+01    1.642021e+01    6.159599e+08    4.871760e-09    6.237870e-12    4.556687e-09    8.361505e-10   -2.400000e+00    8.062432e-01    1.204556e+00
    1.155958e+00    6.808333e+01    1.623212e+01    6.130076e+08    4.871600e-09    6.083780e-12    4.553565e-09    8.359485e-10   -2.390000e+00    8.062432e-01    1.196741e+00
    1.163750e+00    6.926849e+01    1.604494e+01    6.100435e+08    4.871437e-09    5.933880e-12    4.550432e-09    8.357460e-10   -2.380000e+00    8.062432e-01    1.188935e+00
    1.171635e+00    7.046240e+01    1.585867e+01    6.070678e+08    4.871269e-09    5.788040e-12    4.547286e-09    8.355435e-10   -2.370000e+00    8.062432e-01    1.181135e+00
    1.179615e+00    7.166535e+01    1.567333e+01    6.040808e+08    4.871096e-09    5.646135e-12    4.544129e-09    8.353400e-10   -2.360000e+00    8.062432e-01    1.173343e+00
    1.187693e+00    7.287772e+01    1.548891e+01    6.010825e+08    4.870919e-09    5.508040e-12    4.540959e-09    8.351360e-10   -2.350000e+00    8.062432e-01    1.165559e+00
    1.195870e+00    7.409987e+01    1.530541e+01    5.980734e+08    4.870736e-09    5.373650e-12    4.537777e-09    8.349315e-10   -2.340000e+00    8.062432e-01    1.157782e+00
    1.204149e+00    7.533215e+01    1.512284e+01    5.950535e+08    4.870549e-09    5.242840e-12    4.534581e-09    8.347265e-10   -2.330000e+00    8.062432e-01    1.150012e+00
    1.212532e+00    7.657487e+01    1.494121e+01    5.920228e+08    4.870356e-09    5.115510e-12    4.531373e-09    8.345210e-10   -2.320000e+00    8.062432e-01    1.142249e+00
    1.221021e+00    7.782844e+01    1.476051e+01    5.889817e+08    4.870158e-09    4.991548e-12    4.528153e-09    8.343145e-10   -2.310000e+00    8.062432e-01    1.134494e+00
    1.229619e+00    7.909318e+01    1.458075e+01    5.859301e+08    4.869954e-09    4.870858e-12    4.524918e-09    8.341075e-10   -2.300000e+00    8.062432e-01    1.126746e+00
    1.238328e+00    8.036947e+01    1.440193e+01    5.828683e+08    4.869744e-09    4.753341e-12    4.521672e-09    8.338995e-10   -2.290000e+00    8.062432e-01    1.119006e+00
    1.247149e+00    8.165768e+01    1.422407e+01    5.797963e+08    4.869529e-09    4.638900e-12    4.518411e-09    8.336905e-10   -2.280000e+00    8.062432e-01    1.111272e+00
    1.256087e+00    8.295814e+01    1.404715e+01    5.767142e+08    4.869307e-09    4.527447e-12    4.515138e-09    8.334815e-10   -2.270000e+00    8.062432e-01    1.103546e+00
    1.265142e+00    8.427128e+01    1.387118e+01    5.736222e+08    4.869079e-09    4.418891e-12    4.511851e-09    8.332710e-10   -2.260000e+00    8.062432e-01    1.095828e+00
    1.274318e+00    8.559744e+01    1.369617e+01    5.705203e+08    4.868844e-09    4.313146e-12    4.508550e-09    8.330600e-10   -2.250000e+00    8.062432e-01    1.088116e+00
    1.283617e+00    8.693698e+01    1.352212e+01    5.674086e+08    4.868603e-09    4.210131e-12    4.505236e-09    8.328475e-10   -2.240000e+00    8.062432e-01    1.080412e+00
    1.293043e+00    8.829035e+01    1.334903e+01    5.642874e+08    4.868355e-09    4.109764e-12    4.501906e-09    8.326345e-10   -2.230000e+00    8.062432e-01    1.072714e+00
    1.302597e+00    8.965786e+01    1.317690e+01    5.611563e+08    4.868100e-09    4.011970e-12    4.498564e-09    8.324210e-10   -2.220000e+00    8.062432e-01    1.065024e+00
