# GF180MCU-D pfet_03v3 gm/ID Processed Lookup Table
# Corner: fs
# Temperature: 85C
# W = 2.0 um
# L = 6 um (6000 nm)
# Columns: gm/id [1/V]  gm/gds [V/V]  id/W [A/m]  ft [Hz]  Cgg/W [F/m]  Cgd/W [F/m]  Cgs/W [F/m]  Cdb/W [F/m]  vgs [V]  vth [V]  vdsat [V]
# vdsat = BSIM saturation voltage (|VDS|_sat, positive); use for headroom / saturation / cascode-bias calculations
#           gm/id          gm/gds            id/W              ft           Cgg/W           Cgd/W           Cgs/W           Cdb/W             vgs             vth           vdsat
    6.521827e-01    4.836918e+00    8.749465e+00    4.718773e+07    1.924606e-08    2.894815e-10    1.911946e-08    3.491522e-09   -3.300000e+00    7.975513e-01    1.869660e+00
    6.574699e-01    5.002009e+00    8.692405e+00    4.727078e+07    1.924169e-08    2.798824e-10    1.911237e-08    3.490521e-09   -3.290000e+00    7.975513e-01    1.861225e+00
    6.628148e-01    5.176960e+00    8.635165e+00    4.735158e+07    1.923749e-08    2.706185e-10    1.910511e-08    3.489517e-09   -3.280000e+00    7.975513e-01    1.852800e+00
    6.682063e-01    5.362563e+00    8.577890e+00    4.743007e+07    1.923346e-08    2.616787e-10    1.909766e-08    3.488513e-09   -3.270000e+00    7.975513e-01    1.844385e+00
    6.736465e-01    5.559661e+00    8.520530e+00    4.750603e+07    1.922959e-08    2.530521e-10    1.909004e-08    3.487509e-09   -3.260000e+00    7.975513e-01    1.835981e+00
    6.791333e-01    5.769181e+00    8.463095e+00    4.757934e+07    1.922587e-08    2.447282e-10    1.908227e-08    3.486506e-09   -3.250000e+00    7.975513e-01    1.827588e+00
    6.846660e-01    5.992133e+00    8.405580e+00    4.764980e+07    1.922231e-08    2.366966e-10    1.907433e-08    3.485504e-09   -3.240000e+00    7.975513e-01    1.819204e+00
    6.902412e-01    6.229613e+00    8.347995e+00    4.771722e+07    1.921888e-08    2.289474e-10    1.906623e-08    3.484502e-09   -3.230000e+00    7.975513e-01    1.810832e+00
    6.958575e-01    6.482815e+00    8.290340e+00    4.778141e+07    1.921560e-08    2.214706e-10    1.905799e-08    3.483503e-09   -3.220000e+00    7.975513e-01    1.802469e+00
    7.015118e-01    6.753035e+00    8.232620e+00    4.784213e+07    1.921244e-08    2.142570e-10    1.904960e-08    3.482505e-09   -3.210000e+00    7.975513e-01    1.794117e+00
    7.072020e-01    7.041695e+00    8.174835e+00    4.789921e+07    1.920942e-08    2.072972e-10    1.904107e-08    3.481509e-09   -3.200000e+00    7.975513e-01    1.785776e+00
    7.129245e-01    7.350317e+00    8.116995e+00    4.795239e+07    1.920652e-08    2.005822e-10    1.903242e-08    3.480516e-09   -3.190000e+00    7.975513e-01    1.777444e+00
    7.186764e-01    7.680562e+00    8.059100e+00    4.800144e+07    1.920374e-08    1.941035e-10    1.902362e-08    3.479526e-09   -3.180000e+00    7.975513e-01    1.769123e+00
    7.244531e-01    8.034220e+00    8.001160e+00    4.804606e+07    1.920107e-08    1.878525e-10    1.901471e-08    3.478538e-09   -3.170000e+00    7.975513e-01    1.760813e+00
    7.302521e-01    8.413233e+00    7.943175e+00    4.808607e+07    1.919852e-08    1.818212e-10    1.900567e-08    3.477554e-09   -3.160000e+00    7.975513e-01    1.752512e+00
    7.360684e-01    8.819679e+00    7.885150e+00    4.812115e+07    1.919607e-08    1.760016e-10    1.899650e-08    3.476573e-09   -3.150000e+00    7.975513e-01    1.744222e+00
    7.418991e-01    9.255818e+00    7.827095e+00    4.815113e+07    1.919372e-08    1.703861e-10    1.898723e-08    3.475596e-09   -3.140000e+00    7.975513e-01    1.735942e+00
    7.477389e-01    9.724032e+00    7.769015e+00    4.817568e+07    1.919147e-08    1.649673e-10    1.897785e-08    3.474622e-09   -3.130000e+00    7.975513e-01    1.727672e+00
    7.535837e-01    1.022690e+01    7.710915e+00    4.819457e+07    1.918931e-08    1.597381e-10    1.896836e-08    3.473652e-09   -3.120000e+00    7.975513e-01    1.719412e+00
    7.594299e-01    1.076714e+01    7.652800e+00    4.820759e+07    1.918725e-08    1.546916e-10    1.895877e-08    3.472686e-09   -3.110000e+00    7.975513e-01    1.711163e+00
    7.652725e-01    1.134766e+01    7.594680e+00    4.821452e+07    1.918527e-08    1.498211e-10    1.894908e-08    3.471724e-09   -3.100000e+00    7.975513e-01    1.702924e+00
    7.711066e-01    1.197150e+01    7.536565e+00    4.821510e+07    1.918337e-08    1.451201e-10    1.893928e-08    3.470767e-09   -3.090000e+00    7.975513e-01    1.694694e+00
    7.769285e-01    1.264187e+01    7.478455e+00    4.820914e+07    1.918155e-08    1.405825e-10    1.892940e-08    3.469813e-09   -3.080000e+00    7.975513e-01    1.686475e+00
    7.827349e-01    1.336213e+01    7.420360e+00    4.819650e+07    1.917981e-08    1.362022e-10    1.891942e-08    3.468864e-09   -3.070000e+00    7.975513e-01    1.678266e+00
    7.885218e-01    1.413578e+01    7.362295e+00    4.817710e+07    1.917814e-08    1.319736e-10    1.890936e-08    3.467918e-09   -3.060000e+00    7.975513e-01    1.670067e+00
    7.942857e-01    1.496641e+01    7.304255e+00    4.815070e+07    1.917654e-08    1.278910e-10    1.889921e-08    3.466977e-09   -3.050000e+00    7.975513e-01    1.661878e+00
    8.000230e-01    1.585771e+01    7.246260e+00    4.811729e+07    1.917500e-08    1.239490e-10    1.888897e-08    3.466041e-09   -3.040000e+00    7.975513e-01    1.653699e+00
    8.057312e-01    1.681345e+01    7.188315e+00    4.807678e+07    1.917353e-08    1.201425e-10    1.887866e-08    3.465109e-09   -3.030000e+00    7.975513e-01    1.645531e+00
    8.114090e-01    1.783748e+01    7.130430e+00    4.802922e+07    1.917212e-08    1.164664e-10    1.886826e-08    3.464181e-09   -3.020000e+00    7.975513e-01    1.637372e+00
    8.170540e-01    1.893358e+01    7.072605e+00    4.797454e+07    1.917077e-08    1.129160e-10    1.885779e-08    3.463257e-09   -3.010000e+00    7.975513e-01    1.629223e+00
    8.226656e-01    2.010561e+01    7.014855e+00    4.791287e+07    1.916947e-08    1.094867e-10    1.884723e-08    3.462337e-09   -3.000000e+00    7.975513e-01    1.621084e+00
    8.282432e-01    2.135733e+01    6.957190e+00    4.784428e+07    1.916822e-08    1.061741e-10    1.883661e-08    3.461422e-09   -2.990000e+00    7.975513e-01    1.612954e+00
    8.337857e-01    2.269235e+01    6.899615e+00    4.776884e+07    1.916703e-08    1.029736e-10    1.882592e-08    3.460511e-09   -2.980000e+00    7.975513e-01    1.604835e+00
    8.392950e-01    2.411427e+01    6.842135e+00    4.768676e+07    1.916588e-08    9.988140e-11    1.881516e-08    3.459604e-09   -2.970000e+00    7.975513e-01    1.596726e+00
    8.447706e-01    2.562642e+01    6.784765e+00    4.759814e+07    1.916478e-08    9.689335e-11    1.880433e-08    3.458701e-09   -2.960000e+00    7.975513e-01    1.588626e+00
    8.502135e-01    2.723195e+01    6.727510e+00    4.750319e+07    1.916372e-08    9.400570e-11    1.879344e-08    3.457802e-09   -2.950000e+00    7.975513e-01    1.580537e+00
    8.556279e-01    2.893381e+01    6.670370e+00    4.740219e+07    1.916270e-08    9.121475e-11    1.878248e-08    3.456906e-09   -2.940000e+00    7.975513e-01    1.572457e+00
    8.610125e-01    3.073460e+01    6.613365e+00    4.729527e+07    1.916172e-08    8.851695e-11    1.877145e-08    3.456016e-09   -2.930000e+00    7.975513e-01    1.564387e+00
    8.663729e-01    3.263671e+01    6.556490e+00    4.718277e+07    1.916077e-08    8.590890e-11    1.876037e-08    3.455128e-09   -2.920000e+00    7.975513e-01    1.556327e+00
    8.717091e-01    3.464208e+01    6.499760e+00    4.706485e+07    1.915986e-08    8.338730e-11    1.874922e-08    3.454244e-09   -2.910000e+00    7.975513e-01    1.548276e+00
    8.770257e-01    3.675241e+01    6.443175e+00    4.694183e+07    1.915898e-08    8.094910e-11    1.873801e-08    3.453364e-09   -2.900000e+00    7.975513e-01    1.540235e+00
    8.823243e-01    3.896892e+01    6.386745e+00    4.681389e+07    1.915813e-08    7.859115e-11    1.872675e-08    3.452487e-09   -2.890000e+00    7.975513e-01    1.532204e+00
    8.876102e-01    4.129257e+01    6.330470e+00    4.668139e+07    1.915732e-08    7.631060e-11    1.871542e-08    3.451614e-09   -2.880000e+00    7.975513e-01    1.524183e+00
    8.928848e-01    4.372385e+01    6.274365e+00    4.654452e+07    1.915653e-08    7.410460e-11    1.870405e-08    3.450743e-09   -2.870000e+00    7.975513e-01    1.516171e+00
    8.981511e-01    4.626287e+01    6.218430e+00    4.640352e+07    1.915576e-08    7.197050e-11    1.869261e-08    3.449876e-09   -2.860000e+00    7.975513e-01    1.508169e+00
    9.034135e-01    4.890938e+01    6.162665e+00    4.625862e+07    1.915502e-08    6.990570e-11    1.868112e-08    3.449013e-09   -2.850000e+00    7.975513e-01    1.500177e+00
    9.086757e-01    5.166280e+01    6.107080e+00    4.611013e+07    1.915430e-08    6.790770e-11    1.866958e-08    3.448152e-09   -2.840000e+00    7.975513e-01    1.492194e+00
    9.139396e-01    5.452216e+01    6.051680e+00    4.595820e+07    1.915361e-08    6.597410e-11    1.865798e-08    3.447294e-09   -2.830000e+00    7.975513e-01    1.484221e+00
    9.192099e-01    5.748614e+01    5.996465e+00    4.580312e+07    1.915292e-08    6.410255e-11    1.864633e-08    3.446438e-09   -2.820000e+00    7.975513e-01    1.476258e+00
    9.244888e-01    6.055316e+01    5.941440e+00    4.564502e+07    1.915227e-08    6.229090e-11    1.863464e-08    3.445586e-09   -2.810000e+00    7.975513e-01    1.468304e+00
    9.297796e-01    6.372132e+01    5.886610e+00    4.548413e+07    1.915162e-08    6.053695e-11    1.862289e-08    3.444736e-09   -2.800000e+00    7.975513e-01    1.460359e+00
    9.350855e-01    6.698848e+01    5.831975e+00    4.532062e+07    1.915099e-08    5.883875e-11    1.861109e-08    3.443888e-09   -2.790000e+00    7.975513e-01    1.452424e+00
    9.404081e-01    7.035232e+01    5.777545e+00    4.515467e+07    1.915037e-08    5.719420e-11    1.859924e-08    3.443043e-09   -2.780000e+00    7.975513e-01    1.444499e+00
    9.457517e-01    7.381026e+01    5.723315e+00    4.498641e+07    1.914977e-08    5.560150e-11    1.858734e-08    3.442199e-09   -2.770000e+00    7.975513e-01    1.436583e+00
    9.511191e-01    7.735954e+01    5.669285e+00    4.481601e+07    1.914918e-08    5.405875e-11    1.857540e-08    3.441358e-09   -2.760000e+00    7.975513e-01    1.428677e+00
    9.565121e-01    8.099757e+01    5.615470e+00    4.464367e+07    1.914859e-08    5.256430e-11    1.856340e-08    3.440518e-09   -2.750000e+00    7.975513e-01    1.420780e+00
    9.619327e-01    8.472121e+01    5.561865e+00    4.446941e+07    1.914802e-08    5.111630e-11    1.855135e-08    3.439681e-09   -2.740000e+00    7.975513e-01    1.412892e+00
    9.673848e-01    8.852763e+01    5.508470e+00    4.429344e+07    1.914745e-08    4.971328e-11    1.853926e-08    3.438845e-09   -2.730000e+00    7.975513e-01    1.405014e+00
    9.728713e-01    9.241384e+01    5.455285e+00    4.411586e+07    1.914689e-08    4.835360e-11    1.852713e-08    3.438010e-09   -2.720000e+00    7.975513e-01    1.397146e+00
    9.783908e-01    9.637666e+01    5.402325e+00    4.393671e+07    1.914633e-08    4.703576e-11    1.851494e-08    3.437177e-09   -2.710000e+00    7.975513e-01    1.389286e+00
    9.839492e-01    1.004132e+02    5.349575e+00    4.375613e+07    1.914579e-08    4.575832e-11    1.850271e-08    3.436345e-09   -2.700000e+00    7.975513e-01    1.381436e+00
    9.895470e-01    1.045206e+02    5.297050e+00    4.357424e+07    1.914524e-08    4.451988e-11    1.849043e-08    3.435515e-09   -2.690000e+00    7.975513e-01    1.373596e+00
    9.951857e-01    1.086958e+02    5.244745e+00    4.339106e+07    1.914469e-08    4.331911e-11    1.847811e-08    3.434685e-09   -2.680000e+00    7.975513e-01    1.365765e+00
    1.000869e+00    1.129361e+02    5.192660e+00    4.320669e+07    1.914415e-08    4.215471e-11    1.846573e-08    3.433856e-09   -2.670000e+00    7.975513e-01    1.357943e+00
    1.006597e+00    1.172387e+02    5.140800e+00    4.302123e+07    1.914360e-08    4.102545e-11    1.845332e-08    3.433028e-09   -2.660000e+00    7.975513e-01    1.350130e+00
    1.012372e+00    1.216011e+02    5.089165e+00    4.283469e+07    1.914306e-08    3.993012e-11    1.844085e-08    3.432201e-09   -2.650000e+00    7.975513e-01    1.342327e+00
    1.018197e+00    1.260207e+02    5.037760e+00    4.264718e+07    1.914251e-08    3.886759e-11    1.842835e-08    3.431374e-09   -2.640000e+00    7.975513e-01    1.334532e+00
    1.024072e+00    1.304952e+02    4.986578e+00    4.245870e+07    1.914197e-08    3.783673e-11    1.841579e-08    3.430548e-09   -2.630000e+00    7.975513e-01    1.326748e+00
    1.030000e+00    1.350224e+02    4.935626e+00    4.226936e+07    1.914141e-08    3.683647e-11    1.840319e-08    3.429722e-09   -2.620000e+00    7.975513e-01    1.318972e+00
    1.035982e+00    1.396002e+02    4.884904e+00    4.207918e+07    1.914085e-08    3.586581e-11    1.839055e-08    3.428896e-09   -2.610000e+00    7.975513e-01    1.311205e+00
    1.042021e+00    1.442266e+02    4.834413e+00    4.188821e+07    1.914029e-08    3.492374e-11    1.837785e-08    3.428070e-09   -2.600000e+00    7.975513e-01    1.303448e+00
    1.048117e+00    1.488997e+02    4.784153e+00    4.169646e+07    1.913972e-08    3.400931e-11    1.836511e-08    3.427243e-09   -2.590000e+00    7.975513e-01    1.295700e+00
    1.054271e+00    1.536179e+02    4.734126e+00    4.150397e+07    1.913915e-08    3.312161e-11    1.835233e-08    3.426416e-09   -2.580000e+00    7.975513e-01    1.287961e+00
    1.060486e+00    1.583798e+02    4.684333e+00    4.131079e+07    1.913857e-08    3.225974e-11    1.833950e-08    3.425590e-09   -2.570000e+00    7.975513e-01    1.280231e+00
    1.066764e+00    1.631840e+02    4.634773e+00    4.111697e+07    1.913797e-08    3.142287e-11    1.832662e-08    3.424763e-09   -2.560000e+00    7.975513e-01    1.272510e+00
    1.073106e+00    1.680291e+02    4.585449e+00    4.092251e+07    1.913737e-08    3.061016e-11    1.831369e-08    3.423934e-09   -2.550000e+00    7.975513e-01    1.264799e+00
    1.079513e+00    1.729142e+02    4.536360e+00    4.072743e+07    1.913676e-08    2.982083e-11    1.830073e-08    3.423106e-09   -2.540000e+00    7.975513e-01    1.257096e+00
    1.085987e+00    1.778382e+02    4.487508e+00    4.053179e+07    1.913614e-08    2.905411e-11    1.828770e-08    3.422277e-09   -2.530000e+00    7.975513e-01    1.249402e+00
    1.092530e+00    1.828003e+02    4.438893e+00    4.033557e+07    1.913551e-08    2.830927e-11    1.827464e-08    3.421446e-09   -2.520000e+00    7.975513e-01    1.241718e+00
    1.099143e+00    1.877999e+02    4.390515e+00    4.013882e+07    1.913485e-08    2.758561e-11    1.826153e-08    3.420614e-09   -2.510000e+00    7.975513e-01    1.234042e+00
    1.105828e+00    1.928362e+02    4.342377e+00    3.994155e+07    1.913420e-08    2.688242e-11    1.824837e-08    3.419781e-09   -2.500000e+00    7.975513e-01    1.226376e+00
    1.112586e+00    1.979090e+02    4.294477e+00    3.974377e+07    1.913352e-08    2.619908e-11    1.823517e-08    3.418947e-09   -2.490000e+00    7.975513e-01    1.218718e+00
    1.119419e+00    2.030177e+02    4.246817e+00    3.954550e+07    1.913284e-08    2.553493e-11    1.822191e-08    3.418111e-09   -2.480000e+00    7.975513e-01    1.211070e+00
    1.126329e+00    2.081622e+02    4.199398e+00    3.934677e+07    1.913213e-08    2.488936e-11    1.820861e-08    3.417273e-09   -2.470000e+00    7.975513e-01    1.203430e+00
    1.133317e+00    2.133423e+02    4.152220e+00    3.914757e+07    1.913141e-08    2.426179e-11    1.819525e-08    3.416434e-09   -2.460000e+00    7.975513e-01    1.195800e+00
    1.140385e+00    2.185579e+02    4.105283e+00    3.894792e+07    1.913068e-08    2.365164e-11    1.818185e-08    3.415592e-09   -2.450000e+00    7.975513e-01    1.188178e+00
    1.147534e+00    2.238091e+02    4.058588e+00    3.874784e+07    1.912992e-08    2.305837e-11    1.816839e-08    3.414748e-09   -2.440000e+00    7.975513e-01    1.180565e+00
    1.154767e+00    2.290961e+02    4.012135e+00    3.854734e+07    1.912914e-08    2.248144e-11    1.815489e-08    3.413903e-09   -2.430000e+00    7.975513e-01    1.172961e+00
    1.162085e+00    2.344189e+02    3.965926e+00    3.834643e+07    1.912836e-08    2.192034e-11    1.814134e-08    3.413055e-09   -2.420000e+00    7.975513e-01    1.165366e+00
    1.169489e+00    2.397780e+02    3.919961e+00    3.814510e+07    1.912755e-08    2.137458e-11    1.812774e-08    3.412205e-09   -2.410000e+00    7.975513e-01    1.157780e+00
    1.176982e+00    2.451737e+02    3.874239e+00    3.794338e+07    1.912672e-08    2.084369e-11    1.811408e-08    3.411352e-09   -2.400000e+00    7.975513e-01    1.150202e+00
    1.184566e+00    2.506063e+02    3.828762e+00    3.774128e+07    1.912586e-08    2.032720e-11    1.810038e-08    3.410497e-09   -2.390000e+00    7.975513e-01    1.142634e+00
    1.192241e+00    2.560765e+02    3.783531e+00    3.753880e+07    1.912498e-08    1.982467e-11    1.808661e-08    3.409638e-09   -2.380000e+00    7.975513e-01    1.135074e+00
    1.200011e+00    2.615847e+02    3.738545e+00    3.733594e+07    1.912409e-08    1.933567e-11    1.807280e-08    3.408777e-09   -2.370000e+00    7.975513e-01    1.127523e+00
    1.207876e+00    2.671317e+02    3.693805e+00    3.713271e+07    1.912317e-08    1.885979e-11    1.805894e-08    3.407912e-09   -2.360000e+00    7.975513e-01    1.119981e+00
    1.215840e+00    2.727180e+02    3.649312e+00    3.692912e+07    1.912222e-08    1.839662e-11    1.804502e-08    3.407045e-09   -2.350000e+00    7.975513e-01    1.112447e+00
    1.223903e+00    2.783445e+02    3.605066e+00    3.672518e+07    1.912126e-08    1.794578e-11    1.803104e-08    3.406174e-09   -2.340000e+00    7.975513e-01    1.104922e+00
    1.232069e+00    2.840120e+02    3.561067e+00    3.652089e+07    1.912026e-08    1.750690e-11    1.801701e-08    3.405299e-09   -2.330000e+00    7.975513e-01    1.097406e+00
    1.240338e+00    2.897212e+02    3.517317e+00    3.631625e+07    1.911924e-08    1.707963e-11    1.800293e-08    3.404421e-09   -2.320000e+00    7.975513e-01    1.089899e+00
    1.248714e+00    2.954731e+02    3.473814e+00    3.611126e+07    1.911820e-08    1.666360e-11    1.798879e-08    3.403539e-09   -2.310000e+00    7.975513e-01    1.082400e+00
    1.257198e+00    3.012686e+02    3.430561e+00    3.590594e+07    1.911712e-08    1.625849e-11    1.797459e-08    3.402653e-09   -2.300000e+00    7.975513e-01    1.074910e+00
    1.265792e+00    3.071087e+02    3.387557e+00    3.570028e+07    1.911602e-08    1.586395e-11    1.796033e-08    3.401763e-09   -2.290000e+00    7.975513e-01    1.067429e+00
    1.274500e+00    3.129944e+02    3.344802e+00    3.549429e+07    1.911489e-08    1.547970e-11    1.794602e-08    3.400869e-09   -2.280000e+00    7.975513e-01    1.059956e+00
    1.283322e+00    3.189268e+02    3.302297e+00    3.528797e+07    1.911373e-08    1.510542e-11    1.793164e-08    3.399971e-09   -2.270000e+00    7.975513e-01    1.052492e+00
    1.292263e+00    3.249070e+02    3.260044e+00    3.508133e+07    1.911254e-08    1.474081e-11    1.791721e-08    3.399068e-09   -2.260000e+00    7.975513e-01    1.045036e+00
    1.301323e+00    3.309360e+02    3.218041e+00    3.487436e+07    1.911131e-08    1.438560e-11    1.790271e-08    3.398160e-09   -2.250000e+00    7.975513e-01    1.037589e+00
    1.310506e+00    3.370153e+02    3.176290e+00    3.466708e+07    1.911006e-08    1.403950e-11    1.788816e-08    3.397248e-09   -2.240000e+00    7.975513e-01    1.030150e+00
    1.319814e+00    3.431460e+02    3.134790e+00    3.445947e+07    1.910878e-08    1.370226e-11    1.787354e-08    3.396332e-09   -2.230000e+00    7.975513e-01    1.022720e+00
    1.329250e+00    3.493293e+02    3.093543e+00    3.425155e+07    1.910746e-08    1.337361e-11    1.785886e-08    3.395409e-09   -2.220000e+00    7.975513e-01    1.015299e+00
