# GF180MCU-D pfet_03v3 gm/ID Processed Lookup Table
# Corner: fs
# Temperature: -40C
# W = 2.0 um
# L = 5 um (5000 nm)
# Columns: gm/id [1/V]  gm/gds [V/V]  id/W [A/m]  ft [Hz]  Cgg/W [F/m]  Cgd/W [F/m]  Cgs/W [F/m]  Cdb/W [F/m]  vgs [V]  vth [V]  vdsat [V]
# vdsat = BSIM saturation voltage (|VDS|_sat, positive); use for headroom / saturation / cascode-bias calculations
#           gm/id          gm/gds            id/W              ft           Cgg/W           Cgd/W           Cgs/W           Cdb/W             vgs             vth           vdsat
    6.865512e-01    8.084296e+00    1.435340e+01    9.736647e+07    1.610788e-08    1.672986e-10    1.594884e-08    2.882403e-09   -3.300000e+00    9.268162e-01    1.739123e+00
    6.923801e-01    8.476967e+00    1.425485e+01    9.753130e+07    1.610584e-08    1.618892e-10    1.594201e-08    2.881651e-09   -3.290000e+00    9.268162e-01    1.730895e+00
    6.982256e-01    8.897223e+00    1.415601e+01    9.768444e+07    1.610390e-08    1.566700e-10    1.593509e-08    2.880901e-09   -3.280000e+00    9.268162e-01    1.722677e+00
    7.040722e-01    9.347096e+00    1.405710e+01    9.782536e+07    1.610206e-08    1.516343e-10    1.592805e-08    2.880154e-09   -3.270000e+00    9.268162e-01    1.714469e+00
    7.099197e-01    9.828721e+00    1.395807e+01    9.795358e+07    1.610031e-08    1.467755e-10    1.592093e-08    2.879408e-09   -3.260000e+00    9.268162e-01    1.706271e+00
    7.157632e-01    1.034432e+01    1.385892e+01    9.806851e+07    1.609865e-08    1.420872e-10    1.591371e-08    2.878666e-09   -3.250000e+00    9.268162e-01    1.698083e+00
    7.215995e-01    1.089623e+01    1.375967e+01    9.816982e+07    1.609706e-08    1.375632e-10    1.590640e-08    2.877927e-09   -3.240000e+00    9.268162e-01    1.689905e+00
    7.274245e-01    1.148683e+01    1.366035e+01    9.825703e+07    1.609556e-08    1.331977e-10    1.589900e-08    2.877190e-09   -3.230000e+00    9.268162e-01    1.681737e+00
    7.332346e-01    1.211860e+01    1.356094e+01    9.832981e+07    1.609414e-08    1.289847e-10    1.589152e-08    2.876457e-09   -3.220000e+00    9.268162e-01    1.673579e+00
    7.390257e-01    1.279405e+01    1.346148e+01    9.838781e+07    1.609279e-08    1.249187e-10    1.588395e-08    2.875727e-09   -3.210000e+00    9.268162e-01    1.665430e+00
    7.447949e-01    1.351573e+01    1.336198e+01    9.843080e+07    1.609151e-08    1.209944e-10    1.587631e-08    2.875000e-09   -3.200000e+00    9.268162e-01    1.657292e+00
    7.505401e-01    1.428619e+01    1.326245e+01    9.845865e+07    1.609029e-08    1.172065e-10    1.586859e-08    2.874277e-09   -3.190000e+00    9.268162e-01    1.649163e+00
    7.562582e-01    1.510798e+01    1.316291e+01    9.847115e+07    1.608914e-08    1.135501e-10    1.586080e-08    2.873556e-09   -3.180000e+00    9.268162e-01    1.641044e+00
    7.619483e-01    1.598360e+01    1.306336e+01    9.846839e+07    1.608806e-08    1.100204e-10    1.585293e-08    2.872840e-09   -3.170000e+00    9.268162e-01    1.632935e+00
    7.676077e-01    1.691551e+01    1.296384e+01    9.845028e+07    1.608704e-08    1.066126e-10    1.584501e-08    2.872128e-09   -3.160000e+00    9.268162e-01    1.624836e+00
    7.732364e-01    1.790607e+01    1.286435e+01    9.841701e+07    1.608607e-08    1.033222e-10    1.583701e-08    2.871418e-09   -3.150000e+00    9.268162e-01    1.616747e+00
    7.788338e-01    1.895751e+01    1.276490e+01    9.836873e+07    1.608516e-08    1.001451e-10    1.582894e-08    2.870713e-09   -3.140000e+00    9.268162e-01    1.608667e+00
    7.843996e-01    2.007190e+01    1.266552e+01    9.830558e+07    1.608430e-08    9.707685e-11    1.582081e-08    2.870011e-09   -3.130000e+00    9.268162e-01    1.600597e+00
    7.899350e-01    2.125121e+01    1.256621e+01    9.822801e+07    1.608349e-08    9.411365e-11    1.581262e-08    2.869312e-09   -3.120000e+00    9.268162e-01    1.592536e+00
    7.954398e-01    2.249715e+01    1.246699e+01    9.813624e+07    1.608273e-08    9.125155e-11    1.580437e-08    2.868617e-09   -3.110000e+00    9.268162e-01    1.584486e+00
    8.009165e-01    2.381125e+01    1.236788e+01    9.803070e+07    1.608201e-08    8.848680e-11    1.579607e-08    2.867926e-09   -3.100000e+00    9.268162e-01    1.576444e+00
    8.063662e-01    2.519480e+01    1.226888e+01    9.791182e+07    1.608134e-08    8.581590e-11    1.578770e-08    2.867238e-09   -3.090000e+00    9.268162e-01    1.568413e+00
    8.117911e-01    2.664885e+01    1.217002e+01    9.778006e+07    1.608071e-08    8.323530e-11    1.577928e-08    2.866554e-09   -3.080000e+00    9.268162e-01    1.560391e+00
    8.171932e-01    2.817419e+01    1.207130e+01    9.763588e+07    1.608012e-08    8.074175e-11    1.577081e-08    2.865873e-09   -3.070000e+00    9.268162e-01    1.552379e+00
    8.225756e-01    2.977136e+01    1.197273e+01    9.747981e+07    1.607957e-08    7.833205e-11    1.576228e-08    2.865196e-09   -3.060000e+00    9.268162e-01    1.544376e+00
    8.279410e-01    3.144064e+01    1.187433e+01    9.731239e+07    1.607905e-08    7.600310e-11    1.575370e-08    2.864522e-09   -3.050000e+00    9.268162e-01    1.536383e+00
    8.332921e-01    3.318203e+01    1.177610e+01    9.713405e+07    1.607858e-08    7.375195e-11    1.574508e-08    2.863851e-09   -3.040000e+00    9.268162e-01    1.528399e+00
    8.386314e-01    3.499530e+01    1.167808e+01    9.694537e+07    1.607813e-08    7.157575e-11    1.573640e-08    2.863185e-09   -3.030000e+00    9.268162e-01    1.520425e+00
    8.439626e-01    3.687999e+01    1.158024e+01    9.674683e+07    1.607771e-08    6.947180e-11    1.572768e-08    2.862521e-09   -3.020000e+00    9.268162e-01    1.512461e+00
    8.492891e-01    3.883539e+01    1.148261e+01    9.653896e+07    1.607732e-08    6.743740e-11    1.571891e-08    2.861860e-09   -3.010000e+00    9.268162e-01    1.504506e+00
    8.546130e-01    4.086056e+01    1.138520e+01    9.632219e+07    1.607696e-08    6.547005e-11    1.571010e-08    2.861202e-09   -3.000000e+00    9.268162e-01    1.496560e+00
    8.599386e-01    4.295446e+01    1.128802e+01    9.609710e+07    1.607663e-08    6.356735e-11    1.570124e-08    2.860548e-09   -2.990000e+00    9.268162e-01    1.488623e+00
    8.652680e-01    4.511576e+01    1.119107e+01    9.586400e+07    1.607632e-08    6.172690e-11    1.569233e-08    2.859896e-09   -2.980000e+00    9.268162e-01    1.480697e+00
    8.706053e-01    4.734308e+01    1.109435e+01    9.562344e+07    1.607604e-08    5.994650e-11    1.568338e-08    2.859247e-09   -2.970000e+00    9.268162e-01    1.472779e+00
    8.759526e-01    4.963487e+01    1.099789e+01    9.537583e+07    1.607577e-08    5.822395e-11    1.567439e-08    2.858602e-09   -2.960000e+00    9.268162e-01    1.464871e+00
    8.813132e-01    5.198947e+01    1.090168e+01    9.512147e+07    1.607553e-08    5.655715e-11    1.566537e-08    2.857958e-09   -2.950000e+00    9.268162e-01    1.456972e+00
    8.866898e-01    5.440518e+01    1.080574e+01    9.486080e+07    1.607531e-08    5.494415e-11    1.565630e-08    2.857318e-09   -2.940000e+00    9.268162e-01    1.449082e+00
    8.920855e-01    5.688021e+01    1.071006e+01    9.459420e+07    1.607511e-08    5.338295e-11    1.564719e-08    2.856680e-09   -2.930000e+00    9.268162e-01    1.441202e+00
    8.975020e-01    5.941271e+01    1.061465e+01    9.432188e+07    1.607492e-08    5.187180e-11    1.563804e-08    2.856045e-09   -2.920000e+00    9.268162e-01    1.433331e+00
    9.029429e-01    6.200089e+01    1.051952e+01    9.404426e+07    1.607475e-08    5.040880e-11    1.562885e-08    2.855412e-09   -2.910000e+00    9.268162e-01    1.425470e+00
    9.084101e-01    6.464288e+01    1.042468e+01    9.376155e+07    1.607459e-08    4.899231e-11    1.561962e-08    2.854781e-09   -2.900000e+00    9.268162e-01    1.417617e+00
    9.139057e-01    6.733688e+01    1.033013e+01    9.347405e+07    1.607446e-08    4.762066e-11    1.561036e-08    2.854153e-09   -2.890000e+00    9.268162e-01    1.409774e+00
    9.194328e-01    7.008113e+01    1.023587e+01    9.318203e+07    1.607432e-08    4.629227e-11    1.560106e-08    2.853526e-09   -2.880000e+00    9.268162e-01    1.401940e+00
    9.249939e-01    7.287391e+01    1.014191e+01    9.288571e+07    1.607421e-08    4.500561e-11    1.559172e-08    2.852902e-09   -2.870000e+00    9.268162e-01    1.394115e+00
    9.305899e-01    7.571347e+01    1.004824e+01    9.258526e+07    1.607411e-08    4.375921e-11    1.558235e-08    2.852280e-09   -2.860000e+00    9.268162e-01    1.386299e+00
    9.362233e-01    7.859822e+01    9.954890e+00    9.228090e+07    1.607401e-08    4.255166e-11    1.557293e-08    2.851659e-09   -2.850000e+00    9.268162e-01    1.378493e+00
    9.418963e-01    8.152664e+01    9.861845e+00    9.197281e+07    1.607393e-08    4.138161e-11    1.556349e-08    2.851040e-09   -2.840000e+00    9.268162e-01    1.370695e+00
    9.476109e-01    8.449729e+01    9.769115e+00    9.166122e+07    1.607384e-08    4.024775e-11    1.555400e-08    2.850423e-09   -2.830000e+00    9.268162e-01    1.362907e+00
    9.533689e-01    8.750874e+01    9.676700e+00    9.134621e+07    1.607377e-08    3.914881e-11    1.554448e-08    2.849808e-09   -2.820000e+00    9.268162e-01    1.355128e+00
    9.591715e-01    9.055974e+01    9.584610e+00    9.102794e+07    1.607371e-08    3.808360e-11    1.553493e-08    2.849194e-09   -2.810000e+00    9.268162e-01    1.347357e+00
    9.650220e-01    9.364913e+01    9.492835e+00    9.070658e+07    1.607365e-08    3.705095e-11    1.552534e-08    2.848581e-09   -2.800000e+00    9.268162e-01    1.339596e+00
    9.709203e-01    9.677575e+01    9.401395e+00    9.038221e+07    1.607360e-08    3.604973e-11    1.551572e-08    2.847970e-09   -2.790000e+00    9.268162e-01    1.331844e+00
    9.768697e-01    9.993863e+01    9.310280e+00    9.005500e+07    1.607355e-08    3.507888e-11    1.550607e-08    2.847359e-09   -2.780000e+00    9.268162e-01    1.324101e+00
    9.828716e-01    1.031369e+02    9.219495e+00    8.972506e+07    1.607350e-08    3.413734e-11    1.549637e-08    2.846750e-09   -2.770000e+00    9.268162e-01    1.316367e+00
    9.889266e-01    1.063696e+02    9.129045e+00    8.939236e+07    1.607345e-08    3.322414e-11    1.548665e-08    2.846142e-09   -2.760000e+00    9.268162e-01    1.308642e+00
    9.950370e-01    1.096362e+02    9.038935e+00    8.905714e+07    1.607341e-08    3.233829e-11    1.547689e-08    2.845534e-09   -2.750000e+00    9.268162e-01    1.300925e+00
    1.001205e+00    1.129359e+02    8.949165e+00    8.871944e+07    1.607336e-08    3.147889e-11    1.546710e-08    2.844928e-09   -2.740000e+00    9.268162e-01    1.293218e+00
    1.007430e+00    1.162682e+02    8.859740e+00    8.837929e+07    1.607332e-08    3.064503e-11    1.545727e-08    2.844322e-09   -2.730000e+00    9.268162e-01    1.285519e+00
    1.013716e+00    1.196325e+02    8.770655e+00    8.803678e+07    1.607327e-08    2.983586e-11    1.544741e-08    2.843717e-09   -2.720000e+00    9.268162e-01    1.277830e+00
    1.020064e+00    1.230286e+02    8.681920e+00    8.769200e+07    1.607323e-08    2.905055e-11    1.543752e-08    2.843112e-09   -2.710000e+00    9.268162e-01    1.270149e+00
    1.026475e+00    1.264562e+02    8.593535e+00    8.734506e+07    1.607318e-08    2.828831e-11    1.542759e-08    2.842508e-09   -2.700000e+00    9.268162e-01    1.262477e+00
    1.032950e+00    1.299147e+02    8.505500e+00    8.699590e+07    1.607313e-08    2.754837e-11    1.541763e-08    2.841904e-09   -2.690000e+00    9.268162e-01    1.254814e+00
    1.039492e+00    1.334044e+02    8.417820e+00    8.664467e+07    1.607308e-08    2.682999e-11    1.540763e-08    2.841300e-09   -2.680000e+00    9.268162e-01    1.247160e+00
    1.046102e+00    1.369249e+02    8.330495e+00    8.629140e+07    1.607302e-08    2.613246e-11    1.539759e-08    2.840696e-09   -2.670000e+00    9.268162e-01    1.239515e+00
    1.052780e+00    1.404762e+02    8.243530e+00    8.593604e+07    1.607295e-08    2.545511e-11    1.538753e-08    2.840093e-09   -2.660000e+00    9.268162e-01    1.231878e+00
    1.059530e+00    1.440583e+02    8.156925e+00    8.557875e+07    1.607289e-08    2.479725e-11    1.537743e-08    2.839489e-09   -2.650000e+00    9.268162e-01    1.224250e+00
    1.066353e+00    1.476715e+02    8.070680e+00    8.521955e+07    1.607281e-08    2.415826e-11    1.536729e-08    2.838885e-09   -2.640000e+00    9.268162e-01    1.216631e+00
    1.073249e+00    1.513157e+02    7.984800e+00    8.485845e+07    1.607273e-08    2.353753e-11    1.535713e-08    2.838280e-09   -2.630000e+00    9.268162e-01    1.209020e+00
    1.080221e+00    1.549910e+02    7.899290e+00    8.449546e+07    1.607264e-08    2.293446e-11    1.534693e-08    2.837675e-09   -2.620000e+00    9.268162e-01    1.201419e+00
    1.087270e+00    1.586977e+02    7.814140e+00    8.413062e+07    1.607255e-08    2.234849e-11    1.533669e-08    2.837070e-09   -2.610000e+00    9.268162e-01    1.193826e+00
    1.094398e+00    1.624364e+02    7.729365e+00    8.376401e+07    1.607244e-08    2.177906e-11    1.532642e-08    2.836464e-09   -2.600000e+00    9.268162e-01    1.186241e+00
    1.101606e+00    1.662068e+02    7.644965e+00    8.339560e+07    1.607233e-08    2.122564e-11    1.531611e-08    2.835858e-09   -2.590000e+00    9.268162e-01    1.178665e+00
    1.108898e+00    1.700100e+02    7.560930e+00    8.302550e+07    1.607220e-08    2.068773e-11    1.530576e-08    2.835250e-09   -2.580000e+00    9.268162e-01    1.171098e+00
    1.116272e+00    1.738458e+02    7.477275e+00    8.265358e+07    1.607208e-08    2.016483e-11    1.529538e-08    2.834642e-09   -2.570000e+00    9.268162e-01    1.163540e+00
    1.123732e+00    1.777149e+02    7.394000e+00    8.228001e+07    1.607193e-08    1.965647e-11    1.528497e-08    2.834032e-09   -2.560000e+00    9.268162e-01    1.155990e+00
    1.131280e+00    1.816178e+02    7.311100e+00    8.190472e+07    1.607178e-08    1.916218e-11    1.527452e-08    2.833423e-09   -2.550000e+00    9.268162e-01    1.148448e+00
    1.138917e+00    1.855549e+02    7.228580e+00    8.152779e+07    1.607161e-08    1.868152e-11    1.526403e-08    2.832811e-09   -2.540000e+00    9.268162e-01    1.140915e+00
    1.146644e+00    1.895270e+02    7.146445e+00    8.114920e+07    1.607143e-08    1.821407e-11    1.525351e-08    2.832198e-09   -2.530000e+00    9.268162e-01    1.133391e+00
    1.154464e+00    1.935343e+02    7.064695e+00    8.076894e+07    1.607125e-08    1.775942e-11    1.524295e-08    2.831584e-09   -2.520000e+00    9.268162e-01    1.125875e+00
    1.162379e+00    1.975777e+02    6.983330e+00    8.038711e+07    1.607104e-08    1.731716e-11    1.523235e-08    2.830968e-09   -2.510000e+00    9.268162e-01    1.118368e+00
    1.170391e+00    2.016578e+02    6.902350e+00    8.000366e+07    1.607082e-08    1.688692e-11    1.522171e-08    2.830351e-09   -2.500000e+00    9.268162e-01    1.110869e+00
    1.178500e+00    2.057751e+02    6.821760e+00    7.961860e+07    1.607059e-08    1.646832e-11    1.521103e-08    2.829732e-09   -2.490000e+00    9.268162e-01    1.103378e+00
    1.186710e+00    2.099304e+02    6.741560e+00    7.923193e+07    1.607034e-08    1.606101e-11    1.520032e-08    2.829111e-09   -2.480000e+00    9.268162e-01    1.095896e+00
    1.195024e+00    2.141247e+02    6.661755e+00    7.884377e+07    1.607008e-08    1.566463e-11    1.518956e-08    2.828488e-09   -2.470000e+00    9.268162e-01    1.088423e+00
    1.203441e+00    2.183583e+02    6.582340e+00    7.845399e+07    1.606980e-08    1.527886e-11    1.517878e-08    2.827864e-09   -2.460000e+00    9.268162e-01    1.080957e+00
    1.211965e+00    2.226323e+02    6.503325e+00    7.806268e+07    1.606950e-08    1.490337e-11    1.516794e-08    2.827236e-09   -2.450000e+00    9.268162e-01    1.073501e+00
    1.220598e+00    2.269473e+02    6.424705e+00    7.766982e+07    1.606918e-08    1.453787e-11    1.515707e-08    2.826608e-09   -2.440000e+00    9.268162e-01    1.066052e+00
    1.229343e+00    2.313043e+02    6.346485e+00    7.727543e+07    1.606885e-08    1.418202e-11    1.514616e-08    2.825976e-09   -2.430000e+00    9.268162e-01    1.058612e+00
    1.238201e+00    2.357042e+02    6.268665e+00    7.687953e+07    1.606851e-08    1.383556e-11    1.513521e-08    2.825342e-09   -2.420000e+00    9.268162e-01    1.051180e+00
    1.247174e+00    2.401477e+02    6.191250e+00    7.648211e+07    1.606814e-08    1.349820e-11    1.512421e-08    2.824706e-09   -2.410000e+00    9.268162e-01    1.043757e+00
    1.256266e+00    2.446358e+02    6.114235e+00    7.608320e+07    1.606775e-08    1.316967e-11    1.511317e-08    2.824067e-09   -2.400000e+00    9.268162e-01    1.036341e+00
    1.265478e+00    2.491695e+02    6.037630e+00    7.568278e+07    1.606734e-08    1.284971e-11    1.510209e-08    2.823425e-09   -2.390000e+00    9.268162e-01    1.028935e+00
    1.274813e+00    2.537495e+02    5.961425e+00    7.528083e+07    1.606692e-08    1.253806e-11    1.509097e-08    2.822781e-09   -2.380000e+00    9.268162e-01    1.021536e+00
    1.284273e+00    2.583770e+02    5.885635e+00    7.487738e+07    1.606647e-08    1.223448e-11    1.507980e-08    2.822134e-09   -2.370000e+00    9.268162e-01    1.014145e+00
    1.293863e+00    2.630531e+02    5.810250e+00    7.447247e+07    1.606600e-08    1.193873e-11    1.506859e-08    2.821483e-09   -2.360000e+00    9.268162e-01    1.006763e+00
    1.303584e+00    2.677788e+02    5.735280e+00    7.406612e+07    1.606550e-08    1.165058e-11    1.505734e-08    2.820829e-09   -2.350000e+00    9.268162e-01    9.993891e-01
    1.313438e+00    2.725550e+02    5.660725e+00    7.365824e+07    1.606499e-08    1.136981e-11    1.504604e-08    2.820172e-09   -2.340000e+00    9.268162e-01    9.920233e-01
    1.323430e+00    2.773829e+02    5.586580e+00    7.324892e+07    1.606445e-08    1.109621e-11    1.503469e-08    2.819512e-09   -2.330000e+00    9.268162e-01    9.846656e-01
    1.333559e+00    2.822635e+02    5.512855e+00    7.283811e+07    1.606388e-08    1.082957e-11    1.502329e-08    2.818848e-09   -2.320000e+00    9.268162e-01    9.773160e-01
    1.343833e+00    2.871983e+02    5.439550e+00    7.242588e+07    1.606329e-08    1.056968e-11    1.501185e-08    2.818180e-09   -2.310000e+00    9.268162e-01    9.699746e-01
    1.354252e+00    2.921880e+02    5.366660e+00    7.201214e+07    1.606268e-08    1.031636e-11    1.500036e-08    2.817509e-09   -2.300000e+00    9.268162e-01    9.626413e-01
    1.364821e+00    2.972341e+02    5.294190e+00    7.159695e+07    1.606204e-08    1.006942e-11    1.498882e-08    2.816833e-09   -2.290000e+00    9.268162e-01    9.553161e-01
    1.375540e+00    3.023378e+02    5.222150e+00    7.118034e+07    1.606137e-08    9.828665e-12    1.497723e-08    2.816155e-09   -2.280000e+00    9.268162e-01    9.479990e-01
    1.386417e+00    3.075002e+02    5.150525e+00    7.076224e+07    1.606068e-08    9.593935e-12    1.496559e-08    2.815472e-09   -2.270000e+00    9.268162e-01    9.406899e-01
    1.397452e+00    3.127231e+02    5.079335e+00    7.034275e+07    1.605996e-08    9.365055e-12    1.495390e-08    2.814784e-09   -2.260000e+00    9.268162e-01    9.333889e-01
    1.408650e+00    3.180072e+02    5.008565e+00    6.992176e+07    1.605921e-08    9.141855e-12    1.494216e-08    2.814092e-09   -2.250000e+00    9.268162e-01    9.260959e-01
    1.420014e+00    3.233540e+02    4.938227e+00    6.949933e+07    1.605843e-08    8.924180e-12    1.493037e-08    2.813396e-09   -2.240000e+00    9.268162e-01    9.188109e-01
    1.431549e+00    3.287653e+02    4.868319e+00    6.907548e+07    1.605763e-08    8.711875e-12    1.491852e-08    2.812694e-09   -2.230000e+00    9.268162e-01    9.115339e-01
    1.443257e+00    3.342421e+02    4.798843e+00    6.865020e+07    1.605679e-08    8.504790e-12    1.490662e-08    2.811989e-09   -2.220000e+00    9.268162e-01    9.042649e-01
