# GF180MCU-D pfet_03v3 gm/ID Processed Lookup Table
# Corner: fs
# Temperature: -40C
# W = 2.0 um
# L = 4 um (4000 nm)
# Columns: gm/id [1/V]  gm/gds [V/V]  id/W [A/m]  ft [Hz]  Cgg/W [F/m]  Cgd/W [F/m]  Cgs/W [F/m]  Cdb/W [F/m]  vgs [V]  vth [V]  vdsat [V]
# vdsat = BSIM saturation voltage (|VDS|_sat, positive); use for headroom / saturation / cascode-bias calculations
#           gm/id          gm/gds            id/W              ft           Cgg/W           Cgd/W           Cgs/W           Cdb/W             vgs             vth           vdsat
    6.811332e-01    7.602124e+00    1.797903e+01    1.508974e+08    1.291625e-08    1.338552e-10    1.276976e-08    2.301161e-09   -3.300000e+00    9.275137e-01    1.745529e+00
    6.869602e-01    7.957152e+00    1.785656e+01    1.511704e+08    1.291466e-08    1.295466e-10    1.276439e-08    2.300567e-09   -3.290000e+00    9.275137e-01    1.737289e+00
    6.928091e-01    8.336337e+00    1.773370e+01    1.514263e+08    1.291314e-08    1.253890e-10    1.275893e-08    2.299974e-09   -3.280000e+00    9.275137e-01    1.729059e+00
    6.986629e-01    8.741394e+00    1.761075e+01    1.516640e+08    1.291169e-08    1.213768e-10    1.275339e-08    2.299383e-09   -3.270000e+00    9.275137e-01    1.720839e+00
    7.045221e-01    9.174126e+00    1.748762e+01    1.518828e+08    1.291032e-08    1.175050e-10    1.274777e-08    2.298794e-09   -3.260000e+00    9.275137e-01    1.712628e+00
    7.103823e-01    9.636404e+00    1.736434e+01    1.520819e+08    1.290901e-08    1.137684e-10    1.274208e-08    2.298208e-09   -3.250000e+00    9.275137e-01    1.704428e+00
    7.162393e-01    1.013017e+01    1.724092e+01    1.522605e+08    1.290778e-08    1.101622e-10    1.273632e-08    2.297623e-09   -3.240000e+00    9.275137e-01    1.696237e+00
    7.220894e-01    1.065743e+01    1.711738e+01    1.524181e+08    1.290660e-08    1.066817e-10    1.273049e-08    2.297040e-09   -3.230000e+00    9.275137e-01    1.688056e+00
    7.279286e-01    1.122022e+01    1.699372e+01    1.525539e+08    1.290548e-08    1.033223e-10    1.272459e-08    2.296460e-09   -3.220000e+00    9.275137e-01    1.679885e+00
    7.337533e-01    1.182060e+01    1.686998e+01    1.526673e+08    1.290443e-08    1.000796e-10    1.271863e-08    2.295883e-09   -3.210000e+00    9.275137e-01    1.671723e+00
    7.395600e-01    1.246066e+01    1.674616e+01    1.527579e+08    1.290342e-08    9.694940e-11    1.271260e-08    2.295307e-09   -3.200000e+00    9.275137e-01    1.663572e+00
    7.453461e-01    1.314246e+01    1.662229e+01    1.528255e+08    1.290248e-08    9.392760e-11    1.270652e-08    2.294735e-09   -3.190000e+00    9.275137e-01    1.655430e+00
    7.511083e-01    1.386807e+01    1.649838e+01    1.528696e+08    1.290158e-08    9.101015e-11    1.270037e-08    2.294165e-09   -3.180000e+00    9.275137e-01    1.647298e+00
    7.568450e-01    1.463945e+01    1.637445e+01    1.528901e+08    1.290074e-08    8.819330e-11    1.269417e-08    2.293598e-09   -3.170000e+00    9.275137e-01    1.639175e+00
    7.625541e-01    1.545854e+01    1.625053e+01    1.528870e+08    1.289994e-08    8.547340e-11    1.268791e-08    2.293033e-09   -3.160000e+00    9.275137e-01    1.631062e+00
    7.682341e-01    1.632713e+01    1.612662e+01    1.528603e+08    1.289919e-08    8.284680e-11    1.268160e-08    2.292472e-09   -3.150000e+00    9.275137e-01    1.622959e+00
    7.738848e-01    1.724694e+01    1.600275e+01    1.528103e+08    1.289848e-08    8.031020e-11    1.267523e-08    2.291913e-09   -3.140000e+00    9.275137e-01    1.614866e+00
    7.795051e-01    1.821950e+01    1.587894e+01    1.527372e+08    1.289780e-08    7.786020e-11    1.266881e-08    2.291357e-09   -3.130000e+00    9.275137e-01    1.606782e+00
    7.850955e-01    1.924618e+01    1.575521e+01    1.526412e+08    1.289718e-08    7.549365e-11    1.266236e-08    2.290803e-09   -3.120000e+00    9.275137e-01    1.598708e+00
    7.906565e-01    2.032819e+01    1.563156e+01    1.525230e+08    1.289659e-08    7.320750e-11    1.265584e-08    2.290252e-09   -3.110000e+00    9.275137e-01    1.590643e+00
    7.961894e-01    2.146653e+01    1.550802e+01    1.523831e+08    1.289603e-08    7.099880e-11    1.264928e-08    2.289705e-09   -3.100000e+00    9.275137e-01    1.582588e+00
    8.016948e-01    2.266196e+01    1.538462e+01    1.522220e+08    1.289552e-08    6.886475e-11    1.264268e-08    2.289160e-09   -3.090000e+00    9.275137e-01    1.574542e+00
    8.071751e-01    2.391503e+01    1.526136e+01    1.520403e+08    1.289503e-08    6.680255e-11    1.263603e-08    2.288618e-09   -3.080000e+00    9.275137e-01    1.566506e+00
    8.126322e-01    2.522608e+01    1.513825e+01    1.518388e+08    1.289458e-08    6.480965e-11    1.262934e-08    2.288078e-09   -3.070000e+00    9.275137e-01    1.558479e+00
    8.180682e-01    2.659518e+01    1.501533e+01    1.516183e+08    1.289415e-08    6.288340e-11    1.262261e-08    2.287541e-09   -3.060000e+00    9.275137e-01    1.550461e+00
    8.234860e-01    2.802222e+01    1.489259e+01    1.513795e+08    1.289376e-08    6.102150e-11    1.261584e-08    2.287007e-09   -3.050000e+00    9.275137e-01    1.542454e+00
    8.288882e-01    2.950683e+01    1.477005e+01    1.511232e+08    1.289339e-08    5.922150e-11    1.260903e-08    2.286475e-09   -3.040000e+00    9.275137e-01    1.534455e+00
    8.342774e-01    3.104846e+01    1.464774e+01    1.508502e+08    1.289304e-08    5.748120e-11    1.260218e-08    2.285946e-09   -3.030000e+00    9.275137e-01    1.526466e+00
    8.396567e-01    3.264633e+01    1.452565e+01    1.505611e+08    1.289273e-08    5.579840e-11    1.259528e-08    2.285419e-09   -3.020000e+00    9.275137e-01    1.518486e+00
    8.450295e-01    3.429953e+01    1.440381e+01    1.502570e+08    1.289243e-08    5.417105e-11    1.258836e-08    2.284896e-09   -3.010000e+00    9.275137e-01    1.510516e+00
    8.503990e-01    3.600694e+01    1.428222e+01    1.499385e+08    1.289216e-08    5.259710e-11    1.258140e-08    2.284374e-09   -3.000000e+00    9.275137e-01    1.502555e+00
    8.557676e-01    3.776734e+01    1.416090e+01    1.496063e+08    1.289191e-08    5.107465e-11    1.257440e-08    2.283854e-09   -2.990000e+00    9.275137e-01    1.494603e+00
    8.611389e-01    3.957936e+01    1.403985e+01    1.492611e+08    1.289168e-08    4.960185e-11    1.256736e-08    2.283338e-09   -2.980000e+00    9.275137e-01    1.486661e+00
    8.665154e-01    4.144153e+01    1.391910e+01    1.489037e+08    1.289146e-08    4.817686e-11    1.256029e-08    2.282823e-09   -2.970000e+00    9.275137e-01    1.478728e+00
    8.719011e-01    4.335235e+01    1.379864e+01    1.485347e+08    1.289127e-08    4.679800e-11    1.255319e-08    2.282311e-09   -2.960000e+00    9.275137e-01    1.470804e+00
    8.772981e-01    4.531023e+01    1.367848e+01    1.481547e+08    1.289109e-08    4.546360e-11    1.254606e-08    2.281801e-09   -2.950000e+00    9.275137e-01    1.462889e+00
    8.827098e-01    4.731354e+01    1.355864e+01    1.477645e+08    1.289093e-08    4.417208e-11    1.253889e-08    2.281293e-09   -2.940000e+00    9.275137e-01    1.454984e+00
    8.881385e-01    4.936065e+01    1.343912e+01    1.473643e+08    1.289078e-08    4.292190e-11    1.253169e-08    2.280786e-09   -2.930000e+00    9.275137e-01    1.447087e+00
    8.935869e-01    5.144991e+01    1.331992e+01    1.469549e+08    1.289065e-08    4.171160e-11    1.252446e-08    2.280282e-09   -2.920000e+00    9.275137e-01    1.439200e+00
    8.990578e-01    5.357972e+01    1.320107e+01    1.465367e+08    1.289052e-08    4.053975e-11    1.251720e-08    2.279780e-09   -2.910000e+00    9.275137e-01    1.431322e+00
    9.045542e-01    5.574852e+01    1.308255e+01    1.461102e+08    1.289042e-08    3.940500e-11    1.250991e-08    2.279279e-09   -2.900000e+00    9.275137e-01    1.423453e+00
    9.100783e-01    5.795476e+01    1.296439e+01    1.456758e+08    1.289031e-08    3.830603e-11    1.250259e-08    2.278781e-09   -2.890000e+00    9.275137e-01    1.415594e+00
    9.156317e-01    6.019694e+01    1.284659e+01    1.452339e+08    1.289023e-08    3.724159e-11    1.249524e-08    2.278283e-09   -2.880000e+00    9.275137e-01    1.407743e+00
    9.212174e-01    6.247367e+01    1.272914e+01    1.447849e+08    1.289015e-08    3.621045e-11    1.248786e-08    2.277787e-09   -2.870000e+00    9.275137e-01    1.399901e+00
    9.268375e-01    6.478359e+01    1.261206e+01    1.443292e+08    1.289008e-08    3.521146e-11    1.248044e-08    2.277294e-09   -2.860000e+00    9.275137e-01    1.392069e+00
    9.324941e-01    6.712546e+01    1.249535e+01    1.438671e+08    1.289001e-08    3.424349e-11    1.247301e-08    2.276801e-09   -2.850000e+00    9.275137e-01    1.384245e+00
    9.381890e-01    6.949803e+01    1.237903e+01    1.433987e+08    1.288996e-08    3.330547e-11    1.246554e-08    2.276310e-09   -2.840000e+00    9.275137e-01    1.376431e+00
    9.439248e-01    7.190031e+01    1.226308e+01    1.429247e+08    1.288991e-08    3.239635e-11    1.245804e-08    2.275820e-09   -2.830000e+00    9.275137e-01    1.368625e+00
    9.497029e-01    7.433121e+01    1.214752e+01    1.424449e+08    1.288987e-08    3.151513e-11    1.245052e-08    2.275331e-09   -2.820000e+00    9.275137e-01    1.360829e+00
    9.555253e-01    7.678980e+01    1.203235e+01    1.419599e+08    1.288983e-08    3.066085e-11    1.244296e-08    2.274844e-09   -2.810000e+00    9.275137e-01    1.353041e+00
    9.613940e-01    7.927527e+01    1.191758e+01    1.414696e+08    1.288980e-08    2.983259e-11    1.243539e-08    2.274358e-09   -2.800000e+00    9.275137e-01    1.345262e+00
    9.673106e-01    8.178686e+01    1.180320e+01    1.409745e+08    1.288977e-08    2.902945e-11    1.242778e-08    2.273873e-09   -2.790000e+00    9.275137e-01    1.337492e+00
    9.732767e-01    8.432391e+01    1.168923e+01    1.404747e+08    1.288974e-08    2.825057e-11    1.242014e-08    2.273388e-09   -2.780000e+00    9.275137e-01    1.329731e+00
    9.792941e-01    8.688575e+01    1.157566e+01    1.399702e+08    1.288972e-08    2.749514e-11    1.241248e-08    2.272905e-09   -2.770000e+00    9.275137e-01    1.321979e+00
    9.853649e-01    8.947198e+01    1.146251e+01    1.394615e+08    1.288970e-08    2.676234e-11    1.240479e-08    2.272422e-09   -2.760000e+00    9.275137e-01    1.314236e+00
    9.914906e-01    9.208212e+01    1.134977e+01    1.389485e+08    1.288968e-08    2.605143e-11    1.239707e-08    2.271940e-09   -2.750000e+00    9.275137e-01    1.306501e+00
    9.976721e-01    9.471579e+01    1.123745e+01    1.384313e+08    1.288966e-08    2.536166e-11    1.238933e-08    2.271458e-09   -2.740000e+00    9.275137e-01    1.298776e+00
    1.003912e+00    9.737268e+01    1.112555e+01    1.379102e+08    1.288964e-08    2.469232e-11    1.238156e-08    2.270977e-09   -2.730000e+00    9.275137e-01    1.291059e+00
    1.010211e+00    1.000526e+02    1.101407e+01    1.373853e+08    1.288961e-08    2.404273e-11    1.237376e-08    2.270497e-09   -2.720000e+00    9.275137e-01    1.283351e+00
    1.016572e+00    1.027554e+02    1.090301e+01    1.368566e+08    1.288959e-08    2.341223e-11    1.236594e-08    2.270017e-09   -2.710000e+00    9.275137e-01    1.275651e+00
    1.022995e+00    1.054810e+02    1.079240e+01    1.363243e+08    1.288957e-08    2.280018e-11    1.235808e-08    2.269537e-09   -2.700000e+00    9.275137e-01    1.267961e+00
    1.029483e+00    1.082293e+02    1.068220e+01    1.357884e+08    1.288954e-08    2.220597e-11    1.235021e-08    2.269058e-09   -2.690000e+00    9.275137e-01    1.260279e+00
    1.036036e+00    1.110003e+02    1.057245e+01    1.352490e+08    1.288952e-08    2.162902e-11    1.234230e-08    2.268578e-09   -2.680000e+00    9.275137e-01    1.252605e+00
    1.042656e+00    1.137941e+02    1.046314e+01    1.347063e+08    1.288948e-08    2.106877e-11    1.233437e-08    2.268099e-09   -2.670000e+00    9.275137e-01    1.244941e+00
    1.049346e+00    1.166107e+02    1.035426e+01    1.341603e+08    1.288945e-08    2.052465e-11    1.232641e-08    2.267620e-09   -2.660000e+00    9.275137e-01    1.237285e+00
    1.056107e+00    1.194505e+02    1.024584e+01    1.336111e+08    1.288941e-08    1.999614e-11    1.231842e-08    2.267140e-09   -2.650000e+00    9.275137e-01    1.229637e+00
    1.062940e+00    1.223133e+02    1.013785e+01    1.330587e+08    1.288937e-08    1.948275e-11    1.231041e-08    2.266661e-09   -2.640000e+00    9.275137e-01    1.221999e+00
    1.069845e+00    1.251996e+02    1.003032e+01    1.325031e+08    1.288931e-08    1.898397e-11    1.230237e-08    2.266181e-09   -2.630000e+00    9.275137e-01    1.214369e+00
    1.076827e+00    1.281097e+02    9.923235e+00    1.319446e+08    1.288926e-08    1.849934e-11    1.229430e-08    2.265701e-09   -2.620000e+00    9.275137e-01    1.206747e+00
    1.083886e+00    1.310438e+02    9.816605e+00    1.313830e+08    1.288920e-08    1.802839e-11    1.228619e-08    2.265221e-09   -2.610000e+00    9.275137e-01    1.199134e+00
    1.091023e+00    1.340022e+02    9.710435e+00    1.308185e+08    1.288913e-08    1.757071e-11    1.227807e-08    2.264740e-09   -2.600000e+00    9.275137e-01    1.191529e+00
    1.098241e+00    1.369853e+02    9.604720e+00    1.302510e+08    1.288906e-08    1.712585e-11    1.226992e-08    2.264259e-09   -2.590000e+00    9.275137e-01    1.183933e+00
    1.105540e+00    1.399936e+02    9.499470e+00    1.296808e+08    1.288898e-08    1.669341e-11    1.226174e-08    2.263777e-09   -2.580000e+00    9.275137e-01    1.176346e+00
    1.112923e+00    1.430273e+02    9.394680e+00    1.291076e+08    1.288889e-08    1.627300e-11    1.225353e-08    2.263294e-09   -2.570000e+00    9.275137e-01    1.168767e+00
    1.120391e+00    1.460871e+02    9.290360e+00    1.285317e+08    1.288879e-08    1.586423e-11    1.224529e-08    2.262811e-09   -2.560000e+00    9.275137e-01    1.161196e+00
    1.127947e+00    1.491733e+02    9.186505e+00    1.279530e+08    1.288868e-08    1.546675e-11    1.223703e-08    2.262326e-09   -2.550000e+00    9.275137e-01    1.153634e+00
    1.135592e+00    1.522864e+02    9.083120e+00    1.273717e+08    1.288857e-08    1.508020e-11    1.222873e-08    2.261841e-09   -2.540000e+00    9.275137e-01    1.146080e+00
    1.143327e+00    1.554271e+02    8.980210e+00    1.267876e+08    1.288844e-08    1.470423e-11    1.222041e-08    2.261355e-09   -2.530000e+00    9.275137e-01    1.138535e+00
    1.151155e+00    1.585956e+02    8.877775e+00    1.262008e+08    1.288831e-08    1.433851e-11    1.221205e-08    2.260868e-09   -2.520000e+00    9.275137e-01    1.130998e+00
    1.159077e+00    1.617928e+02    8.775820e+00    1.256114e+08    1.288816e-08    1.398275e-11    1.220367e-08    2.260379e-09   -2.510000e+00    9.275137e-01    1.123469e+00
    1.167096e+00    1.650192e+02    8.674340e+00    1.250194e+08    1.288801e-08    1.363661e-11    1.219525e-08    2.259889e-09   -2.500000e+00    9.275137e-01    1.115949e+00
    1.175213e+00    1.682755e+02    8.573345e+00    1.244249e+08    1.288783e-08    1.329982e-11    1.218681e-08    2.259398e-09   -2.490000e+00    9.275137e-01    1.108437e+00
    1.183431e+00    1.715619e+02    8.472830e+00    1.238277e+08    1.288766e-08    1.297207e-11    1.217834e-08    2.258905e-09   -2.480000e+00    9.275137e-01    1.100933e+00
    1.191751e+00    1.748794e+02    8.372805e+00    1.232279e+08    1.288747e-08    1.265310e-11    1.216983e-08    2.258412e-09   -2.470000e+00    9.275137e-01    1.093438e+00
    1.200176e+00    1.782287e+02    8.273265e+00    1.226256e+08    1.288726e-08    1.234263e-11    1.216129e-08    2.257916e-09   -2.460000e+00    9.275137e-01    1.085951e+00
    1.208707e+00    1.816102e+02    8.174215e+00    1.220208e+08    1.288704e-08    1.204042e-11    1.215273e-08    2.257419e-09   -2.450000e+00    9.275137e-01    1.078472e+00
    1.217347e+00    1.850249e+02    8.075660e+00    1.214135e+08    1.288681e-08    1.174620e-11    1.214412e-08    2.256920e-09   -2.440000e+00    9.275137e-01    1.071001e+00
    1.226098e+00    1.884735e+02    7.977600e+00    1.208038e+08    1.288657e-08    1.145975e-11    1.213549e-08    2.256420e-09   -2.430000e+00    9.275137e-01    1.063539e+00
    1.234963e+00    1.919565e+02    7.880035e+00    1.201915e+08    1.288631e-08    1.118083e-11    1.212683e-08    2.255917e-09   -2.420000e+00    9.275137e-01    1.056085e+00
    1.243943e+00    1.954747e+02    7.782970e+00    1.195768e+08    1.288603e-08    1.090920e-11    1.211813e-08    2.255413e-09   -2.410000e+00    9.275137e-01    1.048639e+00
    1.253042e+00    1.990291e+02    7.686405e+00    1.189597e+08    1.288574e-08    1.064467e-11    1.210940e-08    2.254906e-09   -2.400000e+00    9.275137e-01    1.041201e+00
    1.262260e+00    2.026202e+02    7.590345e+00    1.183400e+08    1.288543e-08    1.038702e-11    1.210063e-08    2.254397e-09   -2.390000e+00    9.275137e-01    1.033771e+00
    1.271603e+00    2.062491e+02    7.494785e+00    1.177179e+08    1.288511e-08    1.013603e-11    1.209184e-08    2.253886e-09   -2.380000e+00    9.275137e-01    1.026349e+00
    1.281070e+00    2.099163e+02    7.399735e+00    1.170934e+08    1.288477e-08    9.891530e-12    1.208300e-08    2.253373e-09   -2.370000e+00    9.275137e-01    1.018936e+00
    1.290666e+00    2.136230e+02    7.305195e+00    1.164666e+08    1.288441e-08    9.653310e-12    1.207413e-08    2.252858e-09   -2.360000e+00    9.275137e-01    1.011530e+00
    1.300394e+00    2.173699e+02    7.211165e+00    1.158373e+08    1.288404e-08    9.421200e-12    1.206524e-08    2.252339e-09   -2.350000e+00    9.275137e-01    1.004133e+00
    1.310255e+00    2.211579e+02    7.117650e+00    1.152056e+08    1.288365e-08    9.195015e-12    1.205630e-08    2.251819e-09   -2.340000e+00    9.275137e-01    9.967432e-01
    1.320253e+00    2.249879e+02    7.024645e+00    1.145715e+08    1.288324e-08    8.974585e-12    1.204732e-08    2.251295e-09   -2.330000e+00    9.275137e-01    9.893618e-01
    1.330390e+00    2.288608e+02    6.932165e+00    1.139351e+08    1.288281e-08    8.759745e-12    1.203831e-08    2.250769e-09   -2.320000e+00    9.275137e-01    9.819884e-01
    1.340671e+00    2.327776e+02    6.840200e+00    1.132962e+08    1.288236e-08    8.550335e-12    1.202926e-08    2.250240e-09   -2.310000e+00    9.275137e-01    9.746230e-01
    1.351097e+00    2.367394e+02    6.748755e+00    1.126551e+08    1.288190e-08    8.346200e-12    1.202017e-08    2.249708e-09   -2.300000e+00    9.275137e-01    9.672655e-01
    1.361672e+00    2.407469e+02    6.657835e+00    1.120114e+08    1.288141e-08    8.147185e-12    1.201104e-08    2.249174e-09   -2.290000e+00    9.275137e-01    9.599161e-01
    1.372401e+00    2.448015e+02    6.567440e+00    1.113656e+08    1.288090e-08    7.953150e-12    1.200188e-08    2.248636e-09   -2.280000e+00    9.275137e-01    9.525745e-01
    1.383284e+00    2.489038e+02    6.477570e+00    1.107173e+08    1.288037e-08    7.763950e-12    1.199267e-08    2.248094e-09   -2.270000e+00    9.275137e-01    9.452409e-01
    1.394326e+00    2.530552e+02    6.388235e+00    1.100667e+08    1.287982e-08    7.579450e-12    1.198342e-08    2.247550e-09   -2.260000e+00    9.275137e-01    9.379151e-01
    1.405533e+00    2.572568e+02    6.299425e+00    1.094137e+08    1.287924e-08    7.399520e-12    1.197414e-08    2.247002e-09   -2.250000e+00    9.275137e-01    9.305973e-01
    1.416904e+00    2.615095e+02    6.211155e+00    1.087584e+08    1.287865e-08    7.224025e-12    1.196481e-08    2.246450e-09   -2.240000e+00    9.275137e-01    9.232873e-01
    1.428447e+00    2.658148e+02    6.123415e+00    1.081008e+08    1.287803e-08    7.052850e-12    1.195544e-08    2.245895e-09   -2.230000e+00    9.275137e-01    9.159851e-01
    1.440163e+00    2.701735e+02    6.036215e+00    1.074408e+08    1.287738e-08    6.885870e-12    1.194603e-08    2.245337e-09   -2.220000e+00    9.275137e-01    9.086908e-01
