# GF180MCU-D pfet_03v3 gm/ID Processed Lookup Table
# Corner: fs
# Temperature: -40C
# W = 2.0 um
# L = 2 um (2000 nm)
# Columns: gm/id [1/V]  gm/gds [V/V]  id/W [A/m]  ft [Hz]  Cgg/W [F/m]  Cgd/W [F/m]  Cgs/W [F/m]  Cdb/W [F/m]  vgs [V]  vth [V]  vdsat [V]
# vdsat = BSIM saturation voltage (|VDS|_sat, positive); use for headroom / saturation / cascode-bias calculations
#           gm/id          gm/gds            id/W              ft           Cgg/W           Cgd/W           Cgs/W           Cdb/W             vgs             vth           vdsat
    6.556223e-01    5.959361e+00    3.618693e+01    5.791970e+08    6.519275e-09    7.327035e-11    6.389225e-09    1.139322e-09   -3.300000e+00    9.309050e-01    1.771053e+00
    6.613615e-01    6.195196e+00    3.594968e+01    5.805141e+08    6.518405e-09    7.091955e-11    6.386805e-09    1.139029e-09   -3.290000e+00    9.309050e-01    1.762804e+00
    6.671395e-01    6.445010e+00    3.571142e+01    5.817788e+08    6.517575e-09    6.865030e-11    6.384335e-09    1.138735e-09   -3.280000e+00    9.309050e-01    1.754564e+00
    6.729391e-01    6.709673e+00    3.547294e+01    5.829877e+08    6.516790e-09    6.645975e-11    6.381825e-09    1.138443e-09   -3.270000e+00    9.309050e-01    1.746332e+00
    6.787616e-01    6.990081e+00    3.523401e+01    5.841387e+08    6.516035e-09    6.434515e-11    6.379275e-09    1.138151e-09   -3.260000e+00    9.309050e-01    1.738111e+00
    6.846031e-01    7.287157e+00    3.499464e+01    5.852271e+08    6.515325e-09    6.230380e-11    6.376680e-09    1.137860e-09   -3.250000e+00    9.309050e-01    1.729898e+00
    6.904602e-01    7.601841e+00    3.475487e+01    5.862510e+08    6.514645e-09    6.033315e-11    6.374050e-09    1.137570e-09   -3.240000e+00    9.309050e-01    1.721694e+00
    6.963288e-01    7.935087e+00    3.451471e+01    5.872066e+08    6.514000e-09    5.843065e-11    6.371380e-09    1.137280e-09   -3.230000e+00    9.309050e-01    1.713500e+00
    7.022052e-01    8.287852e+00    3.427420e+01    5.880908e+08    6.513390e-09    5.659390e-11    6.368675e-09    1.136993e-09   -3.220000e+00    9.309050e-01    1.705314e+00
    7.080856e-01    8.661087e+00    3.403337e+01    5.889012e+08    6.512810e-09    5.482055e-11    6.365935e-09    1.136706e-09   -3.210000e+00    9.309050e-01    1.697138e+00
    7.139663e-01    9.055726e+00    3.379224e+01    5.896348e+08    6.512260e-09    5.310835e-11    6.363160e-09    1.136421e-09   -3.200000e+00    9.309050e-01    1.688970e+00
    7.198435e-01    9.472672e+00    3.355085e+01    5.902890e+08    6.511740e-09    5.145510e-11    6.360355e-09    1.136136e-09   -3.190000e+00    9.309050e-01    1.680812e+00
    7.257138e-01    9.912793e+00    3.330922e+01    5.908615e+08    6.511250e-09    4.985863e-11    6.357515e-09    1.135853e-09   -3.180000e+00    9.309050e-01    1.672662e+00
    7.315741e-01    1.037690e+01    3.306740e+01    5.913508e+08    6.510785e-09    4.831694e-11    6.354645e-09    1.135571e-09   -3.170000e+00    9.309050e-01    1.664522e+00
    7.374214e-01    1.086573e+01    3.282541e+01    5.917551e+08    6.510345e-09    4.682803e-11    6.351745e-09    1.135291e-09   -3.160000e+00    9.309050e-01    1.656390e+00
    7.432531e-01    1.137996e+01    3.258329e+01    5.920733e+08    6.509930e-09    4.539001e-11    6.348815e-09    1.135011e-09   -3.150000e+00    9.309050e-01    1.648267e+00
    7.490667e-01    1.192014e+01    3.234107e+01    5.923041e+08    6.509540e-09    4.400102e-11    6.345860e-09    1.134733e-09   -3.140000e+00    9.309050e-01    1.640153e+00
    7.548609e-01    1.248676e+01    3.209879e+01    5.924478e+08    6.509170e-09    4.265929e-11    6.342875e-09    1.134456e-09   -3.130000e+00    9.309050e-01    1.632048e+00
    7.606336e-01    1.308017e+01    3.185648e+01    5.925034e+08    6.508825e-09    4.136312e-11    6.339860e-09    1.134181e-09   -3.120000e+00    9.309050e-01    1.623952e+00
    7.663844e-01    1.370060e+01    3.161418e+01    5.924720e+08    6.508500e-09    4.011083e-11    6.336825e-09    1.133908e-09   -3.110000e+00    9.309050e-01    1.615865e+00
    7.721124e-01    1.434816e+01    3.137192e+01    5.923539e+08    6.508195e-09    3.890085e-11    6.333765e-09    1.133635e-09   -3.100000e+00    9.309050e-01    1.607786e+00
    7.778177e-01    1.502283e+01    3.112973e+01    5.921502e+08    6.507910e-09    3.773164e-11    6.330680e-09    1.133364e-09   -3.090000e+00    9.309050e-01    1.599716e+00
    7.835003e-01    1.572446e+01    3.088767e+01    5.918621e+08    6.507645e-09    3.660171e-11    6.327570e-09    1.133095e-09   -3.080000e+00    9.309050e-01    1.591655e+00
    7.891611e-01    1.645279e+01    3.064574e+01    5.914918e+08    6.507395e-09    3.550964e-11    6.324435e-09    1.132826e-09   -3.070000e+00    9.309050e-01    1.583603e+00
    7.948011e-01    1.720741e+01    3.040399e+01    5.910411e+08    6.507160e-09    3.445407e-11    6.321280e-09    1.132559e-09   -3.060000e+00    9.309050e-01    1.575559e+00
    8.004218e-01    1.798782e+01    3.016245e+01    5.905117e+08    6.506945e-09    3.343366e-11    6.318105e-09    1.132294e-09   -3.050000e+00    9.309050e-01    1.567524e+00
    8.060250e-01    1.879341e+01    2.992115e+01    5.899068e+08    6.506740e-09    3.244714e-11    6.314905e-09    1.132030e-09   -3.040000e+00    9.309050e-01    1.559497e+00
    8.116127e-01    1.962349e+01    2.968011e+01    5.892280e+08    6.506555e-09    3.149330e-11    6.311690e-09    1.131767e-09   -3.030000e+00    9.309050e-01    1.551480e+00
    8.171869e-01    2.047726e+01    2.943938e+01    5.884787e+08    6.506380e-09    3.057094e-11    6.308450e-09    1.131505e-09   -3.020000e+00    9.309050e-01    1.543470e+00
    8.227503e-01    2.135389e+01    2.919897e+01    5.876611e+08    6.506220e-09    2.967894e-11    6.305190e-09    1.131245e-09   -3.010000e+00    9.309050e-01    1.535470e+00
    8.283052e-01    2.225250e+01    2.895892e+01    5.867785e+08    6.506070e-09    2.881620e-11    6.301915e-09    1.130986e-09   -3.000000e+00    9.309050e-01    1.527478e+00
    8.338548e-01    2.317215e+01    2.871925e+01    5.858330e+08    6.505935e-09    2.798165e-11    6.298620e-09    1.130728e-09   -2.990000e+00    9.309050e-01    1.519494e+00
    8.394015e-01    2.411190e+01    2.847997e+01    5.848278e+08    6.505810e-09    2.717431e-11    6.295305e-09    1.130471e-09   -2.980000e+00    9.309050e-01    1.511519e+00
    8.449481e-01    2.507082e+01    2.824113e+01    5.837657e+08    6.505695e-09    2.639318e-11    6.291970e-09    1.130216e-09   -2.970000e+00    9.309050e-01    1.503553e+00
    8.504976e-01    2.604793e+01    2.800274e+01    5.826490e+08    6.505590e-09    2.563734e-11    6.288620e-09    1.129961e-09   -2.960000e+00    9.309050e-01    1.495595e+00
    8.560530e-01    2.704233e+01    2.776481e+01    5.814801e+08    6.505500e-09    2.490587e-11    6.285255e-09    1.129708e-09   -2.950000e+00    9.309050e-01    1.487645e+00
    8.616172e-01    2.805311e+01    2.752737e+01    5.802622e+08    6.505415e-09    2.419791e-11    6.281870e-09    1.129456e-09   -2.940000e+00    9.309050e-01    1.479704e+00
    8.671926e-01    2.907940e+01    2.729046e+01    5.789976e+08    6.505335e-09    2.351261e-11    6.278470e-09    1.129205e-09   -2.930000e+00    9.309050e-01    1.471771e+00
    8.727823e-01    3.012039e+01    2.705406e+01    5.776882e+08    6.505265e-09    2.284919e-11    6.275050e-09    1.128956e-09   -2.920000e+00    9.309050e-01    1.463847e+00
    8.783890e-01    3.117533e+01    2.681822e+01    5.763362e+08    6.505205e-09    2.220686e-11    6.271615e-09    1.128707e-09   -2.910000e+00    9.309050e-01    1.455931e+00
    8.840154e-01    3.224347e+01    2.658293e+01    5.749439e+08    6.505150e-09    2.158488e-11    6.268165e-09    1.128459e-09   -2.900000e+00    9.309050e-01    1.448023e+00
    8.896639e-01    3.332414e+01    2.634823e+01    5.735129e+08    6.505105e-09    2.098252e-11    6.264700e-09    1.128212e-09   -2.890000e+00    9.309050e-01    1.440124e+00
    8.953373e-01    3.441679e+01    2.611412e+01    5.720453e+08    6.505065e-09    2.039911e-11    6.261220e-09    1.127966e-09   -2.880000e+00    9.309050e-01    1.432232e+00
    9.010381e-01    3.552081e+01    2.588061e+01    5.705431e+08    6.505030e-09    1.983398e-11    6.257725e-09    1.127721e-09   -2.870000e+00    9.309050e-01    1.424350e+00
    9.067684e-01    3.663577e+01    2.564773e+01    5.690077e+08    6.505000e-09    1.928648e-11    6.254215e-09    1.127477e-09   -2.860000e+00    9.309050e-01    1.416475e+00
    9.125307e-01    3.776118e+01    2.541549e+01    5.674406e+08    6.504975e-09    1.875601e-11    6.250690e-09    1.127233e-09   -2.850000e+00    9.309050e-01    1.408609e+00
    9.183273e-01    3.889671e+01    2.518389e+01    5.658432e+08    6.504955e-09    1.824197e-11    6.247150e-09    1.126991e-09   -2.840000e+00    9.309050e-01    1.400751e+00
    9.241601e-01    4.004202e+01    2.495295e+01    5.642171e+08    6.504935e-09    1.774379e-11    6.243595e-09    1.126749e-09   -2.830000e+00    9.309050e-01    1.392901e+00
    9.300317e-01    4.119686e+01    2.472268e+01    5.625629e+08    6.504925e-09    1.726093e-11    6.240030e-09    1.126508e-09   -2.820000e+00    9.309050e-01    1.385059e+00
    9.359438e-01    4.236095e+01    2.449310e+01    5.608826e+08    6.504915e-09    1.679285e-11    6.236445e-09    1.126267e-09   -2.810000e+00    9.309050e-01    1.377225e+00
    9.418986e-01    4.353421e+01    2.426420e+01    5.591765e+08    6.504910e-09    1.633904e-11    6.232850e-09    1.126027e-09   -2.800000e+00    9.309050e-01    1.369399e+00
    9.478978e-01    4.471641e+01    2.403601e+01    5.574463e+08    6.504905e-09    1.589904e-11    6.229240e-09    1.125788e-09   -2.790000e+00    9.309050e-01    1.361582e+00
    9.539436e-01    4.590750e+01    2.380853e+01    5.556924e+08    6.504905e-09    1.547234e-11    6.225615e-09    1.125550e-09   -2.780000e+00    9.309050e-01    1.353773e+00
    9.600380e-01    4.710745e+01    2.358177e+01    5.539157e+08    6.504910e-09    1.505851e-11    6.221975e-09    1.125311e-09   -2.770000e+00    9.309050e-01    1.345971e+00
    9.661822e-01    4.831620e+01    2.335575e+01    5.521176e+08    6.504910e-09    1.465711e-11    6.218325e-09    1.125074e-09   -2.760000e+00    9.309050e-01    1.338178e+00
    9.723786e-01    4.953378e+01    2.313045e+01    5.502982e+08    6.504915e-09    1.426772e-11    6.214660e-09    1.124837e-09   -2.750000e+00    9.309050e-01    1.330393e+00
    9.786289e-01    5.076024e+01    2.290592e+01    5.484586e+08    6.504920e-09    1.388993e-11    6.210980e-09    1.124600e-09   -2.740000e+00    9.309050e-01    1.322615e+00
    9.849344e-01    5.199562e+01    2.268213e+01    5.465988e+08    6.504930e-09    1.352336e-11    6.207285e-09    1.124363e-09   -2.730000e+00    9.309050e-01    1.314846e+00
    9.912973e-01    5.324004e+01    2.245911e+01    5.447204e+08    6.504935e-09    1.316763e-11    6.203580e-09    1.124128e-09   -2.720000e+00    9.309050e-01    1.307084e+00
    9.977191e-01    5.449361e+01    2.223686e+01    5.428230e+08    6.504945e-09    1.282237e-11    6.199860e-09    1.123892e-09   -2.710000e+00    9.309050e-01    1.299331e+00
    1.004202e+00    5.575645e+01    2.201539e+01    5.409081e+08    6.504950e-09    1.248724e-11    6.196130e-09    1.123657e-09   -2.700000e+00    9.309050e-01    1.291585e+00
    1.010746e+00    5.702873e+01    2.179471e+01    5.389751e+08    6.504960e-09    1.216190e-11    6.192385e-09    1.123421e-09   -2.690000e+00    9.309050e-01    1.283848e+00
    1.017355e+00    5.831062e+01    2.157482e+01    5.370254e+08    6.504965e-09    1.184603e-11    6.188625e-09    1.123187e-09   -2.680000e+00    9.309050e-01    1.276118e+00
    1.024029e+00    5.960230e+01    2.135573e+01    5.350589e+08    6.504970e-09    1.153932e-11    6.184850e-09    1.122951e-09   -2.670000e+00    9.309050e-01    1.268396e+00
    1.030771e+00    6.090398e+01    2.113744e+01    5.330761e+08    6.504975e-09    1.124147e-11    6.181065e-09    1.122717e-09   -2.660000e+00    9.309050e-01    1.260681e+00
    1.037582e+00    6.221586e+01    2.091997e+01    5.310772e+08    6.504980e-09    1.095219e-11    6.177265e-09    1.122483e-09   -2.650000e+00    9.309050e-01    1.252975e+00
    1.044463e+00    6.353818e+01    2.070331e+01    5.290629e+08    6.504980e-09    1.067119e-11    6.173455e-09    1.122248e-09   -2.640000e+00    9.309050e-01    1.245276e+00
    1.051417e+00    6.487118e+01    2.048749e+01    5.270332e+08    6.504980e-09    1.039821e-11    6.169630e-09    1.122014e-09   -2.630000e+00    9.309050e-01    1.237585e+00
    1.058445e+00    6.621511e+01    2.027250e+01    5.249884e+08    6.504980e-09    1.013301e-11    6.165790e-09    1.121779e-09   -2.620000e+00    9.309050e-01    1.229902e+00
    1.065548e+00    6.757021e+01    2.005835e+01    5.229291e+08    6.504975e-09    9.875300e-12    6.161935e-09    1.121544e-09   -2.610000e+00    9.309050e-01    1.222227e+00
    1.072729e+00    6.893676e+01    1.984504e+01    5.208551e+08    6.504970e-09    9.624870e-12    6.158070e-09    1.121309e-09   -2.600000e+00    9.309050e-01    1.214559e+00
    1.079989e+00    7.031504e+01    1.963259e+01    5.187671e+08    6.504960e-09    9.381475e-12    6.154190e-09    1.121075e-09   -2.590000e+00    9.309050e-01    1.206899e+00
    1.087331e+00    7.170534e+01    1.942098e+01    5.166648e+08    6.504950e-09    9.144890e-12    6.150295e-09    1.120840e-09   -2.580000e+00    9.309050e-01    1.199246e+00
    1.094754e+00    7.310790e+01    1.921025e+01    5.145488e+08    6.504935e-09    8.914905e-12    6.146390e-09    1.120605e-09   -2.570000e+00    9.309050e-01    1.191602e+00
    1.102262e+00    7.452308e+01    1.900038e+01    5.124194e+08    6.504915e-09    8.691310e-12    6.142470e-09    1.120369e-09   -2.560000e+00    9.309050e-01    1.183964e+00
    1.109856e+00    7.595114e+01    1.879138e+01    5.102762e+08    6.504895e-09    8.473900e-12    6.138535e-09    1.120134e-09   -2.550000e+00    9.309050e-01    1.176335e+00
    1.117539e+00    7.739244e+01    1.858326e+01    5.081203e+08    6.504865e-09    8.262485e-12    6.134585e-09    1.119898e-09   -2.540000e+00    9.309050e-01    1.168713e+00
    1.125312e+00    7.884724e+01    1.837603e+01    5.059510e+08    6.504835e-09    8.056870e-12    6.130620e-09    1.119661e-09   -2.530000e+00    9.309050e-01    1.161098e+00
    1.133176e+00    8.031589e+01    1.816969e+01    5.037683e+08    6.504805e-09    7.856885e-12    6.126645e-09    1.119424e-09   -2.520000e+00    9.309050e-01    1.153491e+00
    1.141135e+00    8.179873e+01    1.796424e+01    5.015732e+08    6.504765e-09    7.662345e-12    6.122655e-09    1.119187e-09   -2.510000e+00    9.309050e-01    1.145891e+00
    1.149189e+00    8.329609e+01    1.775970e+01    4.993655e+08    6.504720e-09    7.473090e-12    6.118645e-09    1.118950e-09   -2.500000e+00    9.309050e-01    1.138299e+00
    1.157341e+00    8.480831e+01    1.755606e+01    4.971453e+08    6.504670e-09    7.288955e-12    6.114625e-09    1.118711e-09   -2.490000e+00    9.309050e-01    1.130715e+00
    1.165593e+00    8.633573e+01    1.735333e+01    4.949121e+08    6.504620e-09    7.109775e-12    6.110590e-09    1.118472e-09   -2.480000e+00    9.309050e-01    1.123137e+00
    1.173947e+00    8.787873e+01    1.715152e+01    4.926669e+08    6.504560e-09    6.935410e-12    6.106545e-09    1.118233e-09   -2.470000e+00    9.309050e-01    1.115568e+00
    1.182405e+00    8.943764e+01    1.695063e+01    4.904095e+08    6.504495e-09    6.765700e-12    6.102480e-09    1.117993e-09   -2.460000e+00    9.309050e-01    1.108005e+00
    1.190970e+00    9.101288e+01    1.675068e+01    4.881399e+08    6.504425e-09    6.600520e-12    6.098400e-09    1.117752e-09   -2.450000e+00    9.309050e-01    1.100450e+00
    1.199643e+00    9.260477e+01    1.655165e+01    4.858584e+08    6.504345e-09    6.439720e-12    6.094305e-09    1.117511e-09   -2.440000e+00    9.309050e-01    1.092903e+00
    1.208427e+00    9.421373e+01    1.635356e+01    4.835645e+08    6.504265e-09    6.283170e-12    6.090195e-09    1.117269e-09   -2.430000e+00    9.309050e-01    1.085362e+00
    1.217324e+00    9.584016e+01    1.615640e+01    4.812591e+08    6.504175e-09    6.130750e-12    6.086070e-09    1.117026e-09   -2.420000e+00    9.309050e-01    1.077829e+00
    1.226337e+00    9.748439e+01    1.596021e+01    4.789415e+08    6.504080e-09    5.982325e-12    6.081930e-09    1.116782e-09   -2.410000e+00    9.309050e-01    1.070303e+00
    1.235468e+00    9.914694e+01    1.576496e+01    4.766122e+08    6.503980e-09    5.837790e-12    6.077775e-09    1.116538e-09   -2.400000e+00    9.309050e-01    1.062785e+00
    1.244719e+00    1.008281e+02    1.557067e+01    4.742711e+08    6.503870e-09    5.697015e-12    6.073600e-09    1.116293e-09   -2.390000e+00    9.309050e-01    1.055274e+00
    1.254093e+00    1.025284e+02    1.537733e+01    4.719188e+08    6.503750e-09    5.559895e-12    6.069415e-09    1.116047e-09   -2.380000e+00    9.309050e-01    1.047770e+00
    1.263593e+00    1.042482e+02    1.518497e+01    4.695542e+08    6.503630e-09    5.426325e-12    6.065210e-09    1.115799e-09   -2.370000e+00    9.309050e-01    1.040273e+00
    1.273222e+00    1.059879e+02    1.499359e+01    4.671787e+08    6.503495e-09    5.296200e-12    6.060985e-09    1.115551e-09   -2.360000e+00    9.309050e-01    1.032783e+00
    1.282982e+00    1.077481e+02    1.480317e+01    4.647914e+08    6.503355e-09    5.169415e-12    6.056750e-09    1.115301e-09   -2.350000e+00    9.309050e-01    1.025301e+00
    1.292876e+00    1.095291e+02    1.461374e+01    4.623923e+08    6.503210e-09    5.045875e-12    6.052495e-09    1.115051e-09   -2.340000e+00    9.309050e-01    1.017826e+00
    1.302907e+00    1.113315e+02    1.442530e+01    4.599820e+08    6.503055e-09    4.925486e-12    6.048220e-09    1.114799e-09   -2.330000e+00    9.309050e-01    1.010357e+00
    1.313078e+00    1.131556e+02    1.423785e+01    4.575603e+08    6.502890e-09    4.808157e-12    6.043930e-09    1.114546e-09   -2.320000e+00    9.309050e-01    1.002896e+00
    1.323391e+00    1.150021e+02    1.405139e+01    4.551275e+08    6.502715e-09    4.693799e-12    6.039625e-09    1.114293e-09   -2.310000e+00    9.309050e-01    9.954424e-01
    1.333852e+00    1.168714e+02    1.386594e+01    4.526834e+08    6.502530e-09    4.582329e-12    6.035300e-09    1.114037e-09   -2.300000e+00    9.309050e-01    9.879955e-01
    1.344461e+00    1.187641e+02    1.368149e+01    4.502276e+08    6.502340e-09    4.473661e-12    6.030955e-09    1.113781e-09   -2.290000e+00    9.309050e-01    9.805556e-01
    1.355223e+00    1.206805e+02    1.349806e+01    4.477606e+08    6.502140e-09    4.367717e-12    6.026595e-09    1.113523e-09   -2.280000e+00    9.309050e-01    9.731228e-01
    1.366142e+00    1.226213e+02    1.331564e+01    4.452825e+08    6.501930e-09    4.264418e-12    6.022215e-09    1.113263e-09   -2.270000e+00    9.309050e-01    9.656969e-01
    1.377220e+00    1.245870e+02    1.313424e+01    4.427930e+08    6.501710e-09    4.163693e-12    6.017820e-09    1.113003e-09   -2.260000e+00    9.309050e-01    9.582781e-01
    1.388462e+00    1.265783e+02    1.295386e+01    4.402927e+08    6.501475e-09    4.065465e-12    6.013400e-09    1.112740e-09   -2.250000e+00    9.309050e-01    9.508662e-01
    1.399871e+00    1.285955e+02    1.277452e+01    4.377808e+08    6.501235e-09    3.969666e-12    6.008965e-09    1.112476e-09   -2.240000e+00    9.309050e-01    9.434612e-01
    1.411451e+00    1.306395e+02    1.259621e+01    4.352578e+08    6.500985e-09    3.876227e-12    6.004505e-09    1.112211e-09   -2.230000e+00    9.309050e-01    9.360632e-01
    1.423206e+00    1.327107e+02    1.241894e+01    4.327239e+08    6.500720e-09    3.785084e-12    6.000030e-09    1.111944e-09   -2.220000e+00    9.309050e-01    9.286720e-01
