# GF180MCU-D nfet_03v3 gm/ID Processed Lookup Table
# Corner: typical
# Temperature: 25C
# W = 2.0 um
# L = 1.5 um (1500 nm)
# Columns: gm/id [1/V]  gm/gds [V/V]  id/W [A/m]  ft [Hz]  Cgg/W [F/m]  Cgd/W [F/m]  Cgs/W [F/m]  Cdb/W [F/m]  vgs [V]  vth [V]  vdsat [V]
# vdsat = BSIM saturation voltage (|VDS|_sat, positive); use for headroom / saturation / cascode-bias calculations
#           gm/id          gm/gds            id/W              ft           Cgg/W           Cgd/W           Cgs/W           Cdb/W             vgs             vth           vdsat
    2.724940e+01    4.089795e+02    1.015134e-04    2.315363e+05    1.901433e-09    4.245079e-16    3.467721e-11    8.914480e-12    3.700000e-01    6.763945e-01    4.141504e-02
    2.723523e+01    4.080488e+02    1.333052e-04    3.042610e+05    1.899119e-09    4.844333e-16    4.082487e-11    1.012395e-11    3.800000e-01    6.763945e-01    4.142509e-02
    2.719926e+01    4.070122e+02    1.750095e-04    3.992599e+05    1.897506e-09    5.527285e-16    4.786517e-11    1.149808e-11    3.900000e-01    6.763945e-01    4.143827e-02
    2.714354e+01    4.058616e+02    2.296551e-04    5.230791e+05    1.896685e-09    6.305700e-16    5.592775e-11    1.305952e-11    4.000000e-01    6.763945e-01    4.145552e-02
    2.706933e+01    4.045902e+02    3.011675e-04    6.840583e+05    1.896761e-09    7.193040e-16    6.516025e-11    1.483382e-11    4.100000e-01    6.763945e-01    4.147807e-02
    2.697730e+01    4.031938e+02    3.946198e-04    8.927616e+05    1.897851e-09    8.204645e-16    7.573005e-11    1.684966e-11    4.200000e-01    6.763945e-01    4.150752e-02
    2.686769e+01    4.016705e+02    5.165495e-04    1.162487e+06    1.900090e-09    9.358010e-16    8.782590e-11    1.913913e-11    4.300000e-01    6.763945e-01    4.154588e-02
    2.674042e+01    4.000236e+02    6.753525e-04    1.509861e+06    1.903628e-09    1.067304e-15    1.016592e-10    2.173788e-11    4.400000e-01    6.763945e-01    4.159575e-02
    2.659522e+01    3.982616e+02    8.817750e-04    1.955508e+06    1.908631e-09    1.217234e-15    1.174660e-10    2.468535e-11    4.500000e-01    6.763945e-01    4.166041e-02
    2.643181e+01    3.964015e+02    1.149515e-03    2.524805e+06    1.915288e-09    1.388153e-15    1.355073e-10    2.802487e-11    4.600000e-01    6.763945e-01    4.174402e-02
    2.624991e+01    3.944696e+02    1.495967e-03    3.248702e+06    1.923801e-09    1.582955e-15    1.560707e-10    3.180369e-11    4.700000e-01    6.763945e-01    4.185177e-02
    2.604939e+01    3.925044e+02    1.943117e-03    4.164577e+06    1.934397e-09    1.804904e-15    1.794697e-10    3.607298e-11    4.800000e-01    6.763945e-01    4.199011e-02
    2.583040e+01    3.905582e+02    2.518632e-03    5.317148e+06    1.947319e-09    2.057667e-15    2.060442e-10    4.088759e-11    4.900000e-01    6.763945e-01    4.216698e-02
    2.559329e+01    3.886975e+02    3.257165e-03    6.759327e+06    1.962829e-09    2.345344e-15    2.361585e-10    4.630571e-11    5.000000e-01    6.763945e-01    4.239207e-02
    2.533878e+01    3.870062e+02    4.201911e-03    8.553092e+06    1.981206e-09    2.672514e-15    2.701988e-10    5.238830e-11    5.100000e-01    6.763945e-01    4.267698e-02
    2.506783e+01    3.855826e+02    5.406455e-03    1.077023e+07    2.002741e-09    3.044253e-15    3.085693e-10    5.919820e-11    5.200000e-01    6.763945e-01    4.303549e-02
    2.478152e+01    3.845384e+02    6.936940e-03    1.349289e+07    2.027735e-09    3.466172e-15    3.516857e-10    6.679895e-11    5.300000e-01    6.763945e-01    4.348366e-02
    2.448093e+01    3.839943e+02    8.874590e-03    1.681391e+07    2.056495e-09    3.944435e-15    3.999671e-10    7.525330e-11    5.400000e-01    6.763945e-01    4.403991e-02
    2.416676e+01    3.840717e+02    1.131862e-02    2.083660e+07    2.089321e-09    4.485770e-15    4.538257e-10    8.462125e-11    5.500000e-01    6.763945e-01    4.472488e-02
    2.383915e+01    3.848863e+02    1.438948e-02    2.567383e+07    2.126499e-09    5.097475e-15    5.136520e-10    9.495760e-11    5.600000e-01    6.763945e-01    4.556120e-02
    2.349732e+01    3.865349e+02    1.823238e-02    3.144589e+07    2.168293e-09    5.787400e-15    5.798005e-10    1.063093e-10    5.700000e-01    6.763945e-01    4.657303e-02
    2.313946e+01    3.890854e+02    2.302094e-02    3.827697e+07    2.214923e-09    6.563930e-15    6.525680e-10    1.187124e-10    5.800000e-01    6.763945e-01    4.778543e-02
    2.276272e+01    3.925663e+02    2.896067e-02    4.628978e+07    2.266563e-09    7.435915e-15    7.321760e-10    1.321886e-10    5.900000e-01    6.763945e-01    4.922348e-02
    2.236342e+01    3.969584e+02    3.629195e-02    5.559833e+07    2.323309e-09    8.412620e-15    8.187470e-10    1.467419e-10    6.000000e-01    6.763945e-01    5.091132e-02
    2.193758e+01    4.021924e+02    4.529201e-02    6.629947e+07    2.385176e-09    9.503615e-15    9.122820e-10    1.623557e-10    6.100000e-01    6.763945e-01    5.287114e-02
    2.148153e+01    4.081494e+02    5.627545e-02    7.846391e+07    2.452078e-09    1.071867e-14    1.012643e-09    1.789897e-10    6.200000e-01    6.763945e-01    5.512215e-02
    2.099263e+01    4.146694e+02    6.959290e-02    9.212846e+07    2.523819e-09    1.206759e-14    1.119535e-09    1.965781e-10    6.300000e-01    6.763945e-01    5.767972e-02
    2.046984e+01    4.215618e+02    8.562765e-02    1.072907e+08    2.600080e-09    1.356012e-14    1.232497e-09    2.150290e-10    6.400000e-01    6.763945e-01    6.055474e-02
    1.991409e+01    4.286207e+02    1.047900e-01    1.239074e+08    2.680423e-09    1.520571e-14    1.350898e-09    2.342246e-10    6.500000e-01    6.763945e-01    6.375327e-02
    1.932829e+01    4.356397e+02    1.275104e-01    1.418978e+08    2.764291e-09    1.701337e-14    1.473948e-09    2.540233e-10    6.600000e-01    6.763945e-01    6.727649e-02
    1.871717e+01    4.424255e+02    1.542305e-01    1.611498e+08    2.851022e-09    1.899152e-14    1.600711e-09    2.742632e-10    6.700000e-01    6.763945e-01    7.112092e-02
    1.808673e+01    4.488090e+02    1.853943e-01    1.815300e+08    2.939869e-09    2.114782e-14    1.730132e-09    2.947677e-10    6.800000e-01    6.763945e-01    7.527892e-02
    1.744377e+01    4.546516e+02    2.214391e-01    2.028943e+08    3.030017e-09    2.348905e-14    1.861077e-09    3.153507e-10    6.900000e-01    6.763945e-01    7.973933e-02
    1.679526e+01    4.598486e+02    2.627880e-01    2.250976e+08    3.120625e-09    2.602103e-14    1.992367e-09    3.358240e-10    7.000000e-01    6.763945e-01    8.448818e-02
    1.614788e+01    4.643287e+02    3.098419e-01    2.480027e+08    3.210846e-09    2.874851e-14    2.122827e-09    3.560044e-10    7.100000e-01    6.763945e-01    8.950944e-02
    1.550768e+01    4.680515e+02    3.629750e-01    2.714862e+08    3.299863e-09    3.167520e-14    2.251330e-09    3.757199e-10    7.200000e-01    6.763945e-01    9.478574e-02
    1.487980e+01    4.710021e+02    4.225301e-01    2.954407e+08    3.386918e-09    3.480377e-14    2.376827e-09    3.948159e-10    7.300000e-01    6.763945e-01    1.002990e-01
    1.426845e+01    4.731878e+02    4.888171e-01    3.197766e+08    3.471335e-09    3.813592e-14    2.498395e-09    4.131591e-10    7.400000e-01    6.763945e-01    1.060309e-01
    1.367684e+01    4.746319e+02    5.621105e-01    3.444206e+08    3.552536e-09    4.167246e-14    2.615246e-09    4.306408e-10    7.500000e-01    6.763945e-01    1.119633e-01
    1.310732e+01    4.753704e+02    6.426510e-01    3.693144e+08    3.630052e-09    4.541340e-14    2.726748e-09    4.471787e-10    7.600000e-01    6.763945e-01    1.180787e-01
    1.256144e+01    4.754474e+02    7.306440e-01    3.944113e+08    3.703532e-09    4.935812e-14    2.832433e-09    4.627158e-10    7.700000e-01    6.763945e-01    1.243602e-01
    1.204007e+01    4.749120e+02    8.262635e-01    4.196737e+08    3.772732e-09    5.350550e-14    2.931985e-09    4.772200e-10    7.800000e-01    6.763945e-01    1.307919e-01
    1.154354e+01    4.738162e+02    9.296535e-01    4.450719e+08    3.837516e-09    5.785395e-14    3.025236e-09    4.906813e-10    7.900000e-01    6.763945e-01    1.373588e-01
    1.107177e+01    4.722127e+02    1.040928e+00    4.705804e+08    3.897842e-09    6.240180e-14    3.112148e-09    5.031095e-10    8.000000e-01    6.763945e-01    1.440472e-01
    1.062432e+01    4.701537e+02    1.160179e+00    4.961780e+08    3.953746e-09    6.714710e-14    3.192793e-09    5.145300e-10    8.100000e-01    6.763945e-01    1.508442e-01
    1.020055e+01    4.676896e+02    1.287471e+00    5.218458e+08    4.005335e-09    7.208790e-14    3.267337e-09    5.249815e-10    8.200000e-01    6.763945e-01    1.577381e-01
    9.799613e+00    4.648684e+02    1.422850e+00    5.475660e+08    4.052768e-09    7.722245e-14    3.336018e-09    5.345120e-10    8.300000e-01    6.763945e-01    1.647180e-01
    9.420565e+00    4.617355e+02    1.566346e+00    5.733227e+08    4.096241e-09    8.254895e-14    3.399125e-09    5.431755e-10    8.400000e-01    6.763945e-01    1.717742e-01
    9.062384e+00    4.583324e+02    1.717970e+00    5.991005e+08    4.135979e-09    8.806605e-14    3.456985e-09    5.510320e-10    8.500000e-01    6.763945e-01    1.788978e-01
    8.724017e+00    4.546981e+02    1.877722e+00    6.248849e+08    4.172226e-09    9.377240e-14    3.509947e-09    5.581410e-10    8.600000e-01    6.763945e-01    1.860809e-01
    8.404396e+00    4.508673e+02    2.045590e+00    6.506621e+08    4.205229e-09    9.966720e-14    3.558368e-09    5.645640e-10    8.700000e-01    6.763945e-01    1.933163e-01
    8.102464e+00    4.468718e+02    2.221552e+00    6.764186e+08    4.235242e-09    1.057497e-13    3.602605e-09    5.703605e-10    8.800000e-01    6.763945e-01    2.005973e-01
    7.817187e+00    4.427403e+02    2.405579e+00    7.021421e+08    4.262509e-09    1.120199e-13    3.643010e-09    5.755870e-10    8.900000e-01    6.763945e-01    2.079183e-01
    7.547563e+00    4.384982e+02    2.597637e+00    7.278206e+08    4.287270e-09    1.184775e-13    3.679917e-09    5.802985e-10    9.000000e-01    6.763945e-01    2.152741e-01
    7.292630e+00    4.341677e+02    2.797682e+00    7.534431e+08    4.309751e-09    1.251232e-13    3.713647e-09    5.845455e-10    9.100000e-01    6.763945e-01    2.226600e-01
    7.051469e+00    4.297686e+02    3.005670e+00    7.789987e+08    4.330163e-09    1.319577e-13    3.744499e-09    5.883750e-10    9.200000e-01    6.763945e-01    2.300719e-01
    6.823214e+00    4.253182e+02    3.221552e+00    8.044784e+08    4.348704e-09    1.389821e-13    3.772751e-09    5.918310e-10    9.300000e-01    6.763945e-01    2.375061e-01
    6.607039e+00    4.208319e+02    3.445279e+00    8.298726e+08    4.365560e-09    1.461977e-13    3.798660e-09    5.949530e-10    9.400000e-01    6.763945e-01    2.449595e-01
    6.402174e+00    4.163226e+02    3.676795e+00    8.551734e+08    4.380896e-09    1.536065e-13    3.822461e-09    5.977765e-10    9.500000e-01    6.763945e-01    2.524289e-01
    6.207890e+00    4.118010e+02    3.916050e+00    8.803730e+08    4.394866e-09    1.612103e-13    3.844367e-09    6.003340e-10    9.600000e-01    6.763945e-01    2.599120e-01
    6.023511e+00    4.072777e+02    4.162985e+00    9.054650e+08    4.407609e-09    1.690116e-13    3.864574e-09    6.026555e-10    9.700000e-01    6.763945e-01    2.674064e-01
    5.848399e+00    4.027601e+02    4.417546e+00    9.304425e+08    4.419251e-09    1.770130e-13    3.883256e-09    6.047660e-10    9.800000e-01    6.763945e-01    2.749101e-01
    5.681961e+00    3.982557e+02    4.679677e+00    9.553002e+08    4.429904e-09    1.852174e-13    3.900572e-09    6.066900e-10    9.900000e-01    6.763945e-01    2.824214e-01
    5.523647e+00    3.937699e+02    4.949321e+00    9.800330e+08    4.439673e-09    1.936280e-13    3.916662e-09    6.084475e-10    1.000000e+00    6.763945e-01    2.899385e-01
    5.372939e+00    3.893082e+02    5.226425e+00    1.004637e+09    4.448646e-09    2.022482e-13    3.931654e-09    6.100575e-10    1.010000e+00    6.763945e-01    2.974602e-01
    5.229368e+00    3.848743e+02    5.510925e+00    1.029107e+09    4.456906e-09    2.110817e-13    3.945660e-09    6.115355e-10    1.020000e+00    6.763945e-01    3.049851e-01
    5.092478e+00    3.804716e+02    5.802775e+00    1.053440e+09    4.464526e-09    2.201324e-13    3.958783e-09    6.128975e-10    1.030000e+00    6.763945e-01    3.125123e-01
    4.961862e+00    3.761031e+02    6.101915e+00    1.077633e+09    4.471572e-09    2.294045e-13    3.971111e-09    6.141550e-10    1.040000e+00    6.763945e-01    3.200407e-01
    4.837131e+00    3.717710e+02    6.408295e+00    1.101683e+09    4.478100e-09    2.389024e-13    3.982726e-09    6.153205e-10    1.050000e+00    6.763945e-01    3.275695e-01
    4.717933e+00    3.674772e+02    6.721855e+00    1.125588e+09    4.484163e-09    2.486306e-13    3.993700e-09    6.164030e-10    1.060000e+00    6.763945e-01    3.350979e-01
    4.603936e+00    3.632229e+02    7.042540e+00    1.149347e+09    4.489807e-09    2.585940e-13    4.004094e-09    6.174125e-10    1.070000e+00    6.763945e-01    3.426252e-01
    4.494827e+00    3.590093e+02    7.370305e+00    1.172956e+09    4.495073e-09    2.687977e-13    4.013966e-09    6.183555e-10    1.080000e+00    6.763945e-01    3.501509e-01
    4.390326e+00    3.548370e+02    7.705085e+00    1.196416e+09    4.499997e-09    2.792469e-13    4.023366e-09    6.192400e-10    1.090000e+00    6.763945e-01    3.576745e-01
    4.290159e+00    3.507068e+02    8.046840e+00    1.219724e+09    4.504611e-09    2.899471e-13    4.032338e-09    6.200720e-10    1.100000e+00    6.763945e-01    3.651956e-01
    4.194080e+00    3.466190e+02    8.395515e+00    1.242881e+09    4.508944e-09    3.009040e-13    4.040924e-09    6.208560e-10    1.110000e+00    6.763945e-01    3.727136e-01
    4.101861e+00    3.425739e+02    8.751055e+00    1.265884e+09    4.513023e-09    3.121235e-13    4.049156e-09    6.215980e-10    1.120000e+00    6.763945e-01    3.802283e-01
    4.013284e+00    3.385712e+02    9.113410e+00    1.288734e+09    4.516869e-09    3.236118e-13    4.057067e-09    6.223010e-10    1.130000e+00    6.763945e-01    3.877394e-01
    3.928149e+00    3.346111e+02    9.482530e+00    1.311431e+09    4.520504e-09    3.353751e-13    4.064685e-09    6.229695e-10    1.140000e+00    6.763945e-01    3.952466e-01
    3.846269e+00    3.306933e+02    9.858365e+00    1.333974e+09    4.523945e-09    3.474200e-13    4.072035e-09    6.236060e-10    1.150000e+00    6.763945e-01    4.027498e-01
    3.767467e+00    3.268175e+02    1.024087e+01    1.356363e+09    4.527209e-09    3.597534e-13    4.079138e-09    6.242145e-10    1.160000e+00    6.763945e-01    4.102486e-01
    3.691580e+00    3.229835e+02    1.062999e+01    1.378598e+09    4.530309e-09    3.723822e-13    4.086017e-09    6.247970e-10    1.170000e+00    6.763945e-01    4.177430e-01
    3.618460e+00    3.191909e+02    1.102569e+01    1.400680e+09    4.533260e-09    3.853136e-13    4.092686e-09    6.253555e-10    1.180000e+00    6.763945e-01    4.252328e-01
    3.547961e+00    3.154390e+02    1.142790e+01    1.422608e+09    4.536072e-09    3.985553e-13    4.099163e-09    6.258920e-10    1.190000e+00    6.763945e-01    4.327179e-01
    3.479949e+00    3.117276e+02    1.183658e+01    1.444383e+09    4.538757e-09    4.121148e-13    4.105462e-09    6.264090e-10    1.200000e+00    6.763945e-01    4.401981e-01
    3.414300e+00    3.080560e+02    1.225169e+01    1.466006e+09    4.541323e-09    4.260001e-13    4.111596e-09    6.269075e-10    1.210000e+00    6.763945e-01    4.476736e-01
    3.350897e+00    3.044239e+02    1.267319e+01    1.487476e+09    4.543778e-09    4.402194e-13    4.117576e-09    6.273895e-10    1.220000e+00    6.763945e-01    4.551440e-01
    3.289629e+00    3.008304e+02    1.310101e+01    1.508794e+09    4.546132e-09    4.547811e-13    4.123412e-09    6.278555e-10    1.230000e+00    6.763945e-01    4.626095e-01
    3.230395e+00    2.972753e+02    1.353512e+01    1.529961e+09    4.548389e-09    4.696941e-13    4.129115e-09    6.283070e-10    1.240000e+00    6.763945e-01    4.700700e-01
    3.173096e+00    2.937578e+02    1.397547e+01    1.550977e+09    4.550557e-09    4.849673e-13    4.134692e-09    6.287455e-10    1.250000e+00    6.763945e-01    4.775255e-01
    3.117643e+00    2.902774e+02    1.442202e+01    1.571843e+09    4.552640e-09    5.006100e-13    4.140151e-09    6.291710e-10    1.260000e+00    6.763945e-01    4.849759e-01
    3.063949e+00    2.868335e+02    1.487471e+01    1.592559e+09    4.554645e-09    5.166315e-13    4.145499e-09    6.295850e-10    1.270000e+00    6.763945e-01    4.924213e-01
    3.011933e+00    2.834255e+02    1.533350e+01    1.613126e+09    4.556576e-09    5.330420e-13    4.150743e-09    6.299880e-10    1.280000e+00    6.763945e-01    4.998616e-01
    2.961521e+00    2.800529e+02    1.579836e+01    1.633545e+09    4.558437e-09    5.498515e-13    4.155888e-09    6.303805e-10    1.290000e+00    6.763945e-01    5.072969e-01
    2.912638e+00    2.767150e+02    1.626923e+01    1.653815e+09    4.560231e-09    5.670705e-13    4.160939e-09    6.307635e-10    1.300000e+00    6.763945e-01    5.147273e-01
    2.865221e+00    2.734114e+02    1.674608e+01    1.673939e+09    4.561962e-09    5.847100e-13    4.165901e-09    6.311375e-10    1.310000e+00    6.763945e-01    5.221527e-01
    2.819204e+00    2.701414e+02    1.722884e+01    1.693916e+09    4.563635e-09    6.027805e-13    4.170779e-09    6.315025e-10    1.320000e+00    6.763945e-01    5.295731e-01
    2.774526e+00    2.669046e+02    1.771749e+01    1.713747e+09    4.565250e-09    6.212935e-13    4.175577e-09    6.318600e-10    1.330000e+00    6.763945e-01    5.369887e-01
    2.731131e+00    2.637003e+02    1.821198e+01    1.733432e+09    4.566812e-09    6.402615e-13    4.180298e-09    6.322090e-10    1.340000e+00    6.763945e-01    5.443994e-01
    2.688966e+00    2.605281e+02    1.871227e+01    1.752972e+09    4.568323e-09    6.596960e-13    4.184947e-09    6.325510e-10    1.350000e+00    6.763945e-01    5.518054e-01
    2.647979e+00    2.573873e+02    1.921830e+01    1.772368e+09    4.569784e-09    6.796100e-13    4.189525e-09    6.328860e-10    1.360000e+00    6.763945e-01    5.592066e-01
    2.608124e+00    2.542777e+02    1.973004e+01    1.791622e+09    4.571199e-09    7.000160e-13    4.194037e-09    6.332145e-10    1.370000e+00    6.763945e-01    5.666031e-01
    2.569353e+00    2.511985e+02    2.024745e+01    1.810731e+09    4.572569e-09    7.209275e-13    4.198484e-09    6.335365e-10    1.380000e+00    6.763945e-01    5.739950e-01
    2.531624e+00    2.481494e+02    2.077049e+01    1.829699e+09    4.573896e-09    7.423585e-13    4.202870e-09    6.338525e-10    1.390000e+00    6.763945e-01    5.813823e-01
    2.494894e+00    2.451298e+02    2.129910e+01    1.848524e+09    4.575182e-09    7.643230e-13    4.207197e-09    6.341625e-10    1.400000e+00    6.763945e-01    5.887651e-01
    2.459128e+00    2.421394e+02    2.183325e+01    1.867209e+09    4.576429e-09    7.868350e-13    4.211467e-09    6.344670e-10    1.410000e+00    6.763945e-01    5.961435e-01
    2.424283e+00    2.391774e+02    2.237290e+01    1.885751e+09    4.577637e-09    8.099105e-13    4.215682e-09    6.347660e-10    1.420000e+00    6.763945e-01    6.035176e-01
    2.390331e+00    2.362437e+02    2.291800e+01    1.904155e+09    4.578809e-09    8.335640e-13    4.219845e-09    6.350600e-10    1.430000e+00    6.763945e-01    6.108873e-01
    2.357233e+00    2.333376e+02    2.346852e+01    1.922418e+09    4.579946e-09    8.578125e-13    4.223956e-09    6.353490e-10    1.440000e+00    6.763945e-01    6.182528e-01
    2.324959e+00    2.304589e+02    2.402441e+01    1.940542e+09    4.581049e-09    8.826720e-13    4.228018e-09    6.356335e-10    1.450000e+00    6.763945e-01    6.256141e-01
