# GF180MCU-D nfet_03v3 gm/ID Processed Lookup Table
# Corner: typical
# Temperature: 25C
# W = 2.0 um
# L = 3.5 um (3500 nm)
# Columns: gm/id [1/V]  gm/gds [V/V]  id/W [A/m]  ft [Hz]  Cgg/W [F/m]  Cgd/W [F/m]  Cgs/W [F/m]  Cdb/W [F/m]  vgs [V]  vth [V]  vdsat [V]
# vdsat = BSIM saturation voltage (|VDS|_sat, positive); use for headroom / saturation / cascode-bias calculations
#           gm/id          gm/gds            id/W              ft           Cgg/W           Cgd/W           Cgs/W           Cdb/W             vgs             vth           vdsat
    2.697203e+01    6.310282e+02    6.805815e-05    6.473861e+04    4.512847e-09    1.491106e-15    1.405014e-10    3.250715e-11    3.700000e-01    6.598146e-01    3.732204e-02
    2.696063e+01    6.291707e+02    8.912655e-05    8.473149e+04    4.513489e-09    1.698559e-15    1.631390e-10    3.687748e-11    3.800000e-01    6.598146e-01    3.733833e-02
    2.691874e+01    6.271204e+02    1.166855e-04    1.106836e+05    4.516569e-09    1.934748e-15    1.890193e-10    4.183570e-11    3.900000e-01    6.598146e-01    3.735962e-02
    2.684968e+01    6.248708e+02    1.526809e-04    1.442695e+05    4.522405e-09    2.203670e-15    2.185912e-10    4.745850e-11    4.000000e-01    6.598146e-01    3.738739e-02
    2.675574e+01    6.224214e+02    1.996172e-04    1.875890e+05    4.531349e-09    2.509860e-15    2.523569e-10    5.383090e-11    4.100000e-01    6.598146e-01    3.742354e-02
    2.663842e+01    6.197793e+02    2.607066e-04    2.432549e+05    4.543796e-09    2.858459e-15    2.908742e-10    6.104660e-11    4.200000e-01    6.598146e-01    3.747049e-02
    2.649870e+01    6.169612e+02    3.400537e-04    3.144923e+05    4.560181e-09    3.255277e-15    3.347589e-10    6.920825e-11    4.300000e-01    6.598146e-01    3.753132e-02
    2.633725e+01    6.139982e+02    4.428829e-04    4.052477e+05    4.580984e-09    3.706869e-15    3.846864e-10    7.842755e-11    4.400000e-01    6.598146e-01    3.760988e-02
    2.615457e+01    6.109370e+02    5.758150e-04    5.203053e+05    4.606727e-09    4.220602e-15    4.413919e-10    8.882495e-11    4.500000e-01    6.598146e-01    3.771100e-02
    2.595121e+01    6.078438e+02    7.472025e-04    6.654074e+05    4.637975e-09    4.804736e-15    5.056690e-10    1.005293e-10    4.600000e-01    6.598146e-01    3.784063e-02
    2.572779e+01    6.048079e+02    9.675350e-04    8.473768e+05    4.675335e-09    5.468490e-15    5.783655e-10    1.136767e-10    4.700000e-01    6.598146e-01    3.800611e-02
    2.548518e+01    6.019432e+02    1.249922e-03    1.074235e+06    4.719448e-09    6.222125e-15    6.603775e-10    1.284094e-10    4.800000e-01    6.598146e-01    3.821628e-02
    2.522447e+01    5.993879e+02    1.610666e-03    1.355314e+06    4.770982e-09    7.077005e-15    7.526395e-10    1.448733e-10    4.900000e-01    6.598146e-01    3.848175e-02
    2.494697e+01    5.973058e+02    2.069945e-03    1.701347e+06    4.830629e-09    8.045640e-15    8.561080e-10    1.632153e-10    5.000000e-01    6.598146e-01    3.881503e-02
    2.465402e+01    5.958782e+02    2.652608e-03    2.124546e+06    4.899082e-09    9.141755e-15    9.717440e-10    1.835800e-10    5.100000e-01    6.598146e-01    3.923060e-02
    2.434693e+01    5.952997e+02    3.389095e-03    2.638630e+06    4.977023e-09    1.038029e-14    1.100487e-09    2.061044e-10    5.200000e-01    6.598146e-01    3.974493e-02
    2.402654e+01    5.957646e+02    4.316500e-03    3.258783e+06    5.065095e-09    1.177741e-14    1.243222e-09    2.309133e-10    5.300000e-01    6.598146e-01    4.037640e-02
    2.369306e+01    5.974530e+02    5.479740e-03    4.001513e+06    5.163890e-09    1.335046e-14    1.400745e-09    2.581120e-10    5.400000e-01    6.598146e-01    4.114494e-02
    2.334580e+01    6.005153e+02    6.932825e-03    4.884360e+06    5.273895e-09    1.511791e-14    1.573716e-09    2.877802e-10    5.500000e-01    6.598146e-01    4.207172e-02
    2.298301e+01    6.050535e+02    8.740160e-03    5.925388e+06    5.395475e-09    1.709923e-14    1.762617e-09    3.199635e-10    5.600000e-01    6.598146e-01    4.317844e-02
    2.260199e+01    6.111091e+02    1.097778e-02    7.142445e+06    5.528845e-09    1.931472e-14    1.967699e-09    3.546666e-10    5.700000e-01    6.598146e-01    4.448667e-02
    2.219934e+01    6.186511e+02    1.373438e-02    8.552238e+06    5.674005e-09    2.178534e-14    2.188934e-09    3.918459e-10    5.800000e-01    6.598146e-01    4.601701e-02
    2.177152e+01    6.275739e+02    1.711204e-02    1.016921e+07    5.830740e-09    2.453238e-14    2.425971e-09    4.314032e-10    5.900000e-01    6.598146e-01    4.778824e-02
    2.131541e+01    6.377014e+02    2.122637e-02    1.200442e+07    5.998580e-09    2.757722e-14    2.678104e-09    4.731824e-10    6.000000e-01    6.598146e-01    4.981653e-02
    2.082897e+01    6.487985e+02    2.620617e-02    1.406466e+07    6.176780e-09    3.094098e-14    2.944248e-09    5.169665e-10    6.100000e-01    6.598146e-01    5.211480e-02
    2.031173e+01    6.605891e+02    3.219226e-02    1.635184e+07    6.364320e-09    3.464415e-14    3.222934e-09    5.624800e-10    6.200000e-01    6.598146e-01    5.469228e-02
    1.976504e+01    6.727774e+02    3.933583e-02    1.886284e+07    6.559925e-09    3.870619e-14    3.512331e-09    6.093930e-10    6.300000e-01    6.598146e-01    5.755426e-02
    1.919197e+01    6.850654e+02    4.779605e-02    2.158996e+07    6.762075e-09    4.314526e-14    3.810281e-09    6.573305e-10    6.400000e-01    6.598146e-01    6.070216e-02
    1.859715e+01    6.971734e+02    5.773750e-02    2.452169e+07    6.969060e-09    4.797780e-14    4.114361e-09    7.058820e-10    6.500000e-01    6.598146e-01    6.413371e-02
    1.798626e+01    7.088541e+02    6.932710e-02    2.764383e+07    7.179030e-09    5.321830e-14    4.421962e-09    7.546175e-10    6.600000e-01    6.598146e-01    6.784339e-02
    1.736544e+01    7.198980e+02    8.273160e-02    3.094064e+07    7.390060e-09    5.887915e-14    4.730383e-09    8.031015e-10    6.700000e-01    6.598146e-01    7.182293e-02
    1.674095e+01    7.301398e+02    9.811455e-02    3.439595e+07    7.600225e-09    6.497040e-14    5.036925e-09    8.509085e-10    6.800000e-01    6.598146e-01    7.606185e-02
    1.611868e+01    7.394562e+02    1.156341e-01    3.799396e+07    7.807660e-09    7.149980e-14    5.338995e-09    8.976400e-10    6.900000e-01    6.598146e-01    8.054804e-02
    1.550385e+01    7.477633e+02    1.354411e-01    4.171989e+07    8.010635e-09    7.847290e-14    5.634190e-09    9.429355e-10    7.000000e-01    6.598146e-01    8.526823e-02
    1.490093e+01    7.550117e+02    1.576772e-01    4.556032e+07    8.207590e-09    8.589295e-14    5.920365e-09    9.864845e-10    7.100000e-01    6.598146e-01    9.020847e-02
    1.431351e+01    7.611810e+02    1.824742e-01    4.950317e+07    8.397205e-09    9.376135e-14    6.195695e-09    1.028031e-09    7.200000e-01    6.598146e-01    9.535452e-02
    1.374436e+01    7.662750e+02    2.099528e-01    5.353780e+07    8.578390e-09    1.020778e-13    6.458715e-09    1.067380e-09    7.300000e-01    6.598146e-01    1.006921e-01
    1.319548e+01    7.703154e+02    2.402224e-01    5.765467e+07    8.750325e-09    1.108405e-13    6.708310e-09    1.104393e-09    7.400000e-01    6.598146e-01    1.062072e-01
    1.266821e+01    7.733396e+02    2.733808e-01    6.184537e+07    8.912430e-09    1.200464e-13    6.943725e-09    1.138992e-09    7.500000e-01    6.598146e-01    1.118863e-01
    1.216333e+01    7.753947e+02    3.095145e-01    6.610220e+07    9.064375e-09    1.296919e-13    7.164545e-09    1.171148e-09    7.600000e-01    6.598146e-01    1.177162e-01
    1.168118e+01    7.765362e+02    3.486990e-01    7.041817e+07    9.206040e-09    1.397724e-13    7.370650e-09    1.200879e-09    7.700000e-01    6.598146e-01    1.236845e-01
    1.122172e+01    7.768248e+02    3.909990e-01    7.478682e+07    9.337490e-09    1.502835e-13    7.562180e-09    1.228239e-09    7.800000e-01    6.598146e-01    1.297795e-01
    1.078464e+01    7.763236e+02    4.364695e-01    7.920218e+07    9.458945e-09    1.612202e-13    7.739485e-09    1.253313e-09    7.900000e-01    6.598146e-01    1.359901e-01
    1.036943e+01    7.750989e+02    4.851563e-01    8.365859e+07    9.570755e-09    1.725780e-13    7.903095e-09    1.276210e-09    8.000000e-01    6.598146e-01    1.423062e-01
    9.975414e+00    7.732142e+02    5.370965e-01    8.815080e+07    9.673355e-09    1.843527e-13    8.053650e-09    1.297054e-09    8.100000e-01    6.598146e-01    1.487182e-01
    9.601803e+00    7.707333e+02    5.923205e-01    9.267389e+07    9.767250e-09    1.965401e-13    8.191900e-09    1.315981e-09    8.200000e-01    6.598146e-01    1.552174e-01
    9.247769e+00    7.677183e+02    6.508505e-01    9.722329e+07    9.852990e-09    2.091373e-13    8.318630e-09    1.333130e-09    8.300000e-01    6.598146e-01    1.617956e-01
    8.912416e+00    7.642273e+02    7.127035e-01    1.017947e+08    9.931145e-09    2.221413e-13    8.434660e-09    1.348642e-09    8.400000e-01    6.598146e-01    1.684454e-01
    8.594824e+00    7.603154e+02    7.778920e-01    1.063843e+08    1.000228e-08    2.355501e-13    8.540815e-09    1.362657e-09    8.500000e-01    6.598146e-01    1.751602e-01
    8.294090e+00    7.560339e+02    8.464220e-01    1.109883e+08    1.006697e-08    2.493625e-13    8.637905e-09    1.375307e-09    8.600000e-01    6.598146e-01    1.819337e-01
    8.009297e+00    7.514300e+02    9.182985e-01    1.156034e+08    1.012576e-08    2.635778e-13    8.726705e-09    1.386721e-09    8.700000e-01    6.598146e-01    1.887605e-01
    7.739574e+00    7.465476e+02    9.935205e-01    1.202269e+08    1.017917e-08    2.781963e-13    8.807965e-09    1.397018e-09    8.800000e-01    6.598146e-01    1.956355e-01
    7.484049e+00    7.414252e+02    1.072086e+00    1.248557e+08    1.022769e-08    2.932188e-13    8.882380e-09    1.406311e-09    8.900000e-01    6.598146e-01    2.025542e-01
    7.241902e+00    7.360993e+02    1.153989e+00    1.294876e+08    1.027180e-08    3.086470e-13    8.950605e-09    1.414701e-09    9.000000e-01    6.598146e-01    2.095125e-01
    7.012337e+00    7.306016e+02    1.239225e+00    1.341202e+08    1.031190e-08    3.244831e-13    9.013240e-09    1.422283e-09    9.100000e-01    6.598146e-01    2.165068e-01
    6.794602e+00    7.249608e+02    1.327784e+00    1.387517e+08    1.034840e-08    3.407301e-13    9.070835e-09    1.429143e-09    9.200000e-01    6.598146e-01    2.235336e-01
    6.587981e+00    7.192019e+02    1.419656e+00    1.433803e+08    1.038165e-08    3.573918e-13    9.123900e-09    1.435358e-09    9.300000e-01    6.598146e-01    2.305902e-01
    6.391794e+00    7.133469e+02    1.514833e+00    1.480043e+08    1.041198e-08    3.744724e-13    9.172895e-09    1.440999e-09    9.400000e-01    6.598146e-01    2.376738e-01
    6.205402e+00    7.074161e+02    1.613303e+00    1.526224e+08    1.043969e-08    3.919767e-13    9.218235e-09    1.446128e-09    9.500000e-01    6.598146e-01    2.447821e-01
    6.028204e+00    7.014260e+02    1.715053e+00    1.572334e+08    1.046504e-08    4.099103e-13    9.260295e-09    1.450802e-09    9.600000e-01    6.598146e-01    2.519130e-01
    5.859639e+00    6.953924e+02    1.820072e+00    1.618361e+08    1.048828e-08    4.282792e-13    9.299405e-09    1.455070e-09    9.700000e-01    6.598146e-01    2.590646e-01
    5.699174e+00    6.893277e+02    1.928348e+00    1.664295e+08    1.050962e-08    4.470899e-13    9.335880e-09    1.458977e-09    9.800000e-01    6.598146e-01    2.662351e-01
    5.546314e+00    6.832434e+02    2.039868e+00    1.710130e+08    1.052925e-08    4.663495e-13    9.369980e-09    1.462564e-09    9.900000e-01    6.598146e-01    2.734232e-01
    5.400594e+00    6.771488e+02    2.154618e+00    1.755854e+08    1.054736e-08    4.860656e-13    9.401950e-09    1.465865e-09    1.000000e+00    6.598146e-01    2.806275e-01
    5.261586e+00    6.710529e+02    2.272588e+00    1.801465e+08    1.056408e-08    5.062465e-13    9.432010e-09    1.468912e-09    1.010000e+00    6.598146e-01    2.878467e-01
    5.128885e+00    6.649627e+02    2.393762e+00    1.846955e+08    1.057957e-08    5.269000e-13    9.460350e-09    1.471733e-09    1.020000e+00    6.598146e-01    2.950798e-01
    5.002112e+00    6.588840e+02    2.518130e+00    1.892318e+08    1.059394e-08    5.480360e-13    9.487140e-09    1.474351e-09    1.030000e+00    6.598146e-01    3.023259e-01
    4.880915e+00    6.528223e+02    2.645677e+00    1.937551e+08    1.060730e-08    5.696635e-13    9.512530e-09    1.476788e-09    1.040000e+00    6.598146e-01    3.095840e-01
    4.764969e+00    6.467818e+02    2.776391e+00    1.982650e+08    1.061976e-08    5.917920e-13    9.536665e-09    1.479065e-09    1.050000e+00    6.598146e-01    3.168536e-01
    4.653966e+00    6.407661e+02    2.910261e+00    2.027611e+08    1.063141e-08    6.144330e-13    9.559660e-09    1.481197e-09    1.060000e+00    6.598146e-01    3.241338e-01
    4.547621e+00    6.347785e+02    3.047273e+00    2.072430e+08    1.064230e-08    6.375960e-13    9.581620e-09    1.483200e-09    1.070000e+00    6.598146e-01    3.314241e-01
    4.445669e+00    6.288212e+02    3.187414e+00    2.117107e+08    1.065253e-08    6.612925e-13    9.602650e-09    1.485086e-09    1.080000e+00    6.598146e-01    3.387239e-01
    4.347861e+00    6.228968e+02    3.330672e+00    2.161640e+08    1.066214e-08    6.855345e-13    9.622825e-09    1.486868e-09    1.090000e+00    6.598146e-01    3.460329e-01
    4.253967e+00    6.170066e+02    3.477035e+00    2.206024e+08    1.067120e-08    7.103340e-13    9.642230e-09    1.488555e-09    1.100000e+00    6.598146e-01    3.533505e-01
    4.163770e+00    6.111520e+02    3.626492e+00    2.250258e+08    1.067975e-08    7.357030e-13    9.660930e-09    1.490157e-09    1.110000e+00    6.598146e-01    3.606764e-01
    4.077066e+00    6.053338e+02    3.779029e+00    2.294343e+08    1.068783e-08    7.616545e-13    9.678980e-09    1.491682e-09    1.120000e+00    6.598146e-01    3.680102e-01
    3.993671e+00    5.995535e+02    3.934635e+00    2.338276e+08    1.069550e-08    7.882020e-13    9.696440e-09    1.493137e-09    1.130000e+00    6.598146e-01    3.753517e-01
    3.913404e+00    5.938109e+02    4.093297e+00    2.382056e+08    1.070277e-08    8.153595e-13    9.713360e-09    1.494528e-09    1.140000e+00    6.598146e-01    3.827006e-01
    3.836104e+00    5.881068e+02    4.255005e+00    2.425682e+08    1.070969e-08    8.431405e-13    9.729775e-09    1.495862e-09    1.150000e+00    6.598146e-01    3.900566e-01
    3.761614e+00    5.824415e+02    4.419746e+00    2.469153e+08    1.071627e-08    8.715595e-13    9.745730e-09    1.497143e-09    1.160000e+00    6.598146e-01    3.974197e-01
    3.689792e+00    5.768149e+02    4.587509e+00    2.512469e+08    1.072255e-08    9.006325e-13    9.761255e-09    1.498375e-09    1.170000e+00    6.598146e-01    4.047895e-01
    3.620500e+00    5.712270e+02    4.758281e+00    2.555630e+08    1.072855e-08    9.303745e-13    9.776385e-09    1.499562e-09    1.180000e+00    6.598146e-01    4.121659e-01
    3.553614e+00    5.656778e+02    4.932052e+00    2.598633e+08    1.073428e-08    9.608015e-13    9.791150e-09    1.500708e-09    1.190000e+00    6.598146e-01    4.195488e-01
    3.489012e+00    5.601671e+02    5.108810e+00    2.641480e+08    1.073977e-08    9.919300e-13    9.805570e-09    1.501816e-09    1.200000e+00    6.598146e-01    4.269381e-01
    3.426587e+00    5.546947e+02    5.288540e+00    2.684171e+08    1.074503e-08    1.023777e-12    9.819670e-09    1.502889e-09    1.210000e+00    6.598146e-01    4.343337e-01
    3.366229e+00    5.492602e+02    5.471240e+00    2.726703e+08    1.075008e-08    1.056361e-12    9.833470e-09    1.503930e-09    1.220000e+00    6.598146e-01    4.417354e-01
    3.307844e+00    5.438632e+02    5.656885e+00    2.769077e+08    1.075493e-08    1.089698e-12    9.846990e-09    1.504940e-09    1.230000e+00    6.598146e-01    4.491432e-01
    3.251336e+00    5.385035e+02    5.845475e+00    2.811292e+08    1.075960e-08    1.123808e-12    9.860245e-09    1.505921e-09    1.240000e+00    6.598146e-01    4.565571e-01
    3.196619e+00    5.331804e+02    6.036995e+00    2.853349e+08    1.076408e-08    1.158709e-12    9.873255e-09    1.506877e-09    1.250000e+00    6.598146e-01    4.639769e-01
    3.143611e+00    5.278936e+02    6.231430e+00    2.895244e+08    1.076840e-08    1.194422e-12    9.886025e-09    1.507808e-09    1.260000e+00    6.598146e-01    4.714027e-01
    3.092234e+00    5.226427e+02    6.428775e+00    2.936982e+08    1.077257e-08    1.230967e-12    9.898575e-09    1.508715e-09    1.270000e+00    6.598146e-01    4.788344e-01
    3.042415e+00    5.174271e+02    6.629015e+00    2.978561e+08    1.077659e-08    1.268363e-12    9.910910e-09    1.509600e-09    1.280000e+00    6.598146e-01    4.862719e-01
    2.994087e+00    5.122463e+02    6.832135e+00    3.019977e+08    1.078047e-08    1.306634e-12    9.923050e-09    1.510464e-09    1.290000e+00    6.598146e-01    4.937152e-01
    2.947184e+00    5.070999e+02    7.038130e+00    3.061233e+08    1.078421e-08    1.345800e-12    9.935000e-09    1.511309e-09    1.300000e+00    6.598146e-01    5.011644e-01
    2.901645e+00    5.019875e+02    7.246985e+00    3.102330e+08    1.078782e-08    1.385885e-12    9.946770e-09    1.512136e-09    1.310000e+00    6.598146e-01    5.086194e-01
    2.857411e+00    4.969083e+02    7.458690e+00    3.143264e+08    1.079132e-08    1.426912e-12    9.958365e-09    1.512944e-09    1.320000e+00    6.598146e-01    5.160801e-01
    2.814430e+00    4.918621e+02    7.673230e+00    3.184036e+08    1.079471e-08    1.468905e-12    9.969795e-09    1.513736e-09    1.330000e+00    6.598146e-01    5.235467e-01
    2.772645e+00    4.868482e+02    7.890600e+00    3.224647e+08    1.079798e-08    1.511888e-12    9.981065e-09    1.514512e-09    1.340000e+00    6.598146e-01    5.310191e-01
    2.732011e+00    4.818662e+02    8.110785e+00    3.265095e+08    1.080114e-08    1.555888e-12    9.992185e-09    1.515273e-09    1.350000e+00    6.598146e-01    5.384972e-01
    2.692481e+00    4.769156e+02    8.333770e+00    3.305380e+08    1.080421e-08    1.600930e-12    1.000316e-08    1.516019e-09    1.360000e+00    6.598146e-01    5.459812e-01
    2.654009e+00    4.719960e+02    8.559550e+00    3.345502e+08    1.080718e-08    1.647041e-12    1.001400e-08    1.516751e-09    1.370000e+00    6.598146e-01    5.534710e-01
    2.616555e+00    4.671067e+02    8.788110e+00    3.385460e+08    1.081005e-08    1.694250e-12    1.002471e-08    1.517470e-09    1.380000e+00    6.598146e-01    5.609667e-01
    2.580078e+00    4.622475e+02    9.019440e+00    3.425253e+08    1.081284e-08    1.742585e-12    1.003528e-08    1.518176e-09    1.390000e+00    6.598146e-01    5.684682e-01
    2.544541e+00    4.574179e+02    9.253525e+00    3.464883e+08    1.081554e-08    1.792075e-12    1.004573e-08    1.518870e-09    1.400000e+00    6.598146e-01    5.759755e-01
    2.509909e+00    4.526172e+02    9.490355e+00    3.504348e+08    1.081816e-08    1.842750e-12    1.005606e-08    1.519552e-09    1.410000e+00    6.598146e-01    5.834888e-01
    2.476147e+00    4.478457e+02    9.729920e+00    3.543647e+08    1.082070e-08    1.894643e-12    1.006627e-08    1.520223e-09    1.420000e+00    6.598146e-01    5.910080e-01
    2.443222e+00    4.431019e+02    9.972205e+00    3.582781e+08    1.082316e-08    1.947785e-12    1.007637e-08    1.520882e-09    1.430000e+00    6.598146e-01    5.985331e-01
    2.411105e+00    4.383862e+02    1.021720e+01    3.621747e+08    1.082555e-08    2.002209e-12    1.008637e-08    1.521532e-09    1.440000e+00    6.598146e-01    6.060642e-01
    2.379764e+00    4.336980e+02    1.046490e+01    3.660546e+08    1.082787e-08    2.057951e-12    1.009626e-08    1.522170e-09    1.450000e+00    6.598146e-01    6.136013e-01
