# GF180MCU-D nfet_03v3 gm/ID Processed Lookup Table
# Corner: fs
# Temperature: 85C
# W = 2.0 um
# L = 3.5 um (3500 nm)
# Columns: gm/id [1/V]  gm/gds [V/V]  id/W [A/m]  ft [Hz]  Cgg/W [F/m]  Cgd/W [F/m]  Cgs/W [F/m]  Cdb/W [F/m]  vgs [V]  vth [V]  vdsat [V]
# vdsat = BSIM saturation voltage (|VDS|_sat, positive); use for headroom / saturation / cascode-bias calculations
#           gm/id          gm/gds            id/W              ft           Cgg/W           Cgd/W           Cgs/W           Cdb/W             vgs             vth           vdsat
    2.270074e+01    6.268956e+02    6.817700e-05    5.300518e+04    4.647076e-09    2.042794e-15    1.714391e-10    3.720967e-11    1.800000e-01    5.136673e-01    4.513779e-02
    2.270056e+01    6.255114e+02    8.555275e-05    6.653394e+04    4.645659e-09    2.279135e-15    1.929017e-10    4.136668e-11    1.900000e-01    5.136673e-01    4.515280e-02
    2.268285e+01    6.240151e+02    1.073471e-04    8.340743e+04    4.646256e-09    2.542811e-15    2.169604e-10    4.598709e-11    2.000000e-01    5.136673e-01    4.517162e-02
    2.264949e+01    6.224043e+02    1.346589e-04    1.044112e+05    4.649072e-09    2.836991e-15    2.439094e-10    5.112010e-11    2.100000e-01    5.136673e-01    4.519517e-02
    2.260191e+01    6.206795e+02    1.688509e-04    1.305002e+05    4.654336e-09    3.165195e-15    2.740702e-10    5.681920e-11    2.200000e-01    5.136673e-01    4.522463e-02
    2.254116e+01    6.188436e+02    2.116101e-04    1.628296e+05    4.662293e-09    3.531332e-15    3.077931e-10    6.314210e-11    2.300000e-01    5.136673e-01    4.526142e-02
    2.246802e+01    6.169051e+02    2.650198e-04    2.027906e+05    4.673212e-09    3.939732e-15    3.454579e-10    7.015110e-11    2.400000e-01    5.136673e-01    4.530729e-02
    2.238302e+01    6.148760e+02    3.316476e-04    2.520491e+05    4.687384e-09    4.395185e-15    3.874745e-10    7.791275e-11    2.500000e-01    5.136673e-01    4.536440e-02
    2.228664e+01    6.127767e+02    4.146496e-04    3.125899e+05    4.705123e-09    4.902978e-15    4.342830e-10    8.649805e-11    2.600000e-01    5.136673e-01    4.543535e-02
    2.217918e+01    6.106340e+02    5.178965e-04    3.867628e+05    4.726763e-09    5.468935e-15    4.863535e-10    9.598215e-11    2.700000e-01    5.136673e-01    4.552332e-02
    2.206101e+01    6.084849e+02    6.461220e-04    4.773349e+05    4.752662e-09    6.099455e-15    5.441845e-10    1.064440e-10    2.800000e-01    5.136673e-01    4.563214e-02
    2.193249e+01    6.063771e+02    8.051005e-04    5.875435e+05    4.783195e-09    6.801560e-15    6.083015e-10    1.179658e-10    2.900000e-01    5.136673e-01    4.576639e-02
    2.179400e+01    6.043702e+02    1.001858e-03    7.211540e+05    4.818757e-09    7.582910e-15    6.792525e-10    1.306324e-10    3.000000e-01    5.136673e-01    4.593154e-02
    2.164606e+01    6.025368e+02    1.244915e-03    8.825194e+05    4.859755e-09    8.451875e-15    7.576045e-10    1.445302e-10    3.100000e-01    5.136673e-01    4.613405e-02
    2.148926e+01    6.009629e+02    1.544583e-03    1.076642e+06    4.906608e-09    9.417530e-15    8.439360e-10    1.597462e-10    3.200000e-01    5.136673e-01    4.638151e-02
    2.132422e+01    5.997480e+02    1.913303e-03    1.309236e+06    4.959740e-09    1.048970e-14    9.388305e-10    1.763661e-10    3.300000e-01    5.136673e-01    4.668271e-02
    2.115164e+01    5.990036e+02    2.366044e-03    1.586793e+06    5.019570e-09    1.167897e-14    1.042865e-09    1.944730e-10    3.400000e-01    5.136673e-01    4.704778e-02
    2.097216e+01    5.988514e+02    2.920768e-03    1.916641e+06    5.086505e-09    1.299672e-14    1.156595e-09    2.141447e-10    3.500000e-01    5.136673e-01    4.748822e-02
    2.078625e+01    5.994181e+02    3.598967e-03    2.306992e+06    5.160930e-09    1.445508e-14    1.280549e-09    2.354514e-10    3.600000e-01    5.136673e-01    4.801693e-02
    2.059416e+01    6.008314e+02    4.426268e-03    2.766976e+06    5.243200e-09    1.606696e-14    1.415199e-09    2.584534e-10    3.700000e-01    5.136673e-01    4.864820e-02
    2.039573e+01    6.032127e+02    5.433125e-03    3.306638e+06    5.333625e-09    1.784599e-14    1.560954e-09    2.831973e-10    3.800000e-01    5.136673e-01    4.939754e-02
    2.019032e+01    6.066690e+02    6.655565e-03    3.936891e+06    5.432440e-09    1.980646e-14    1.718130e-09    3.097137e-10    3.900000e-01    5.136673e-01    5.028158e-02
    1.997663e+01    6.112838e+02    8.136000e-03    4.669373e+06    5.539810e-09    2.196330e-14    1.886937e-09    3.380134e-10    4.000000e-01    5.136673e-01    5.131770e-02
    1.975281e+01    6.171092e+02    9.924020e-03    5.516214e+06    5.655820e-09    2.433194e-14    2.067452e-09    3.680846e-10    4.100000e-01    5.136673e-01    5.252376e-02
    1.951638e+01    6.241567e+02    1.207719e-02    6.489700e+06    5.780435e-09    2.692825e-14    2.259604e-09    3.998900e-10    4.200000e-01    5.136673e-01    5.391760e-02
    1.926446e+01    6.323924e+02    1.466170e-02    7.601804e+06    5.913500e-09    2.976836e-14    2.463149e-09    4.333648e-10    4.300000e-01    5.136673e-01    5.551653e-02
    1.899394e+01    6.417328e+02    1.775292e-02    8.863600e+06    6.054730e-09    3.286855e-14    2.677666e-09    4.684147e-10    4.400000e-01    5.136673e-01    5.733682e-02
    1.870188e+01    6.520467e+02    2.143554e-02    1.028462e+07    6.203710e-09    3.624505e-14    2.902538e-09    5.049155e-10    4.500000e-01    5.136673e-01    5.939317e-02
    1.838575e+01    6.631583e+02    2.580354e-02    1.187222e+07    6.359880e-09    3.991394e-14    3.136955e-09    5.427135e-10    4.600000e-01    5.136673e-01    6.169814e-02
    1.804382e+01    6.748542e+02    3.095960e-02    1.363099e+07    6.522540e-09    4.389087e-14    3.379916e-09    5.816270e-10    4.700000e-01    5.136673e-01    6.426179e-02
    1.767534e+01    6.868973e+02    3.701425e-02    1.556234e+07    6.690860e-09    4.819095e-14    3.630239e-09    6.214490e-10    4.800000e-01    5.136673e-01    6.709130e-02
    1.728073e+01    6.990371e+02    4.408442e-02    1.766431e+07    6.863895e-09    5.282855e-14    3.886589e-09    6.619510e-10    4.900000e-01    5.136673e-01    7.019083e-02
    1.686158e+01    7.110244e+02    5.229175e-02    1.993157e+07    7.040605e-09    5.781715e-14    4.147495e-09    7.028890e-10    5.000000e-01    5.136673e-01    7.356143e-02
    1.642049e+01    7.226222e+02    6.176070e-02    2.235574e+07    7.219870e-09    6.316920e-14    4.411389e-09    7.440070e-10    5.100000e-01    5.136673e-01    7.720114e-02
    1.596097e+01    7.336186e+02    7.261635e-02    2.492591e+07    7.400530e-09    6.889595e-14    4.676647e-09    7.850475e-10    5.200000e-01    5.136673e-01    8.110523e-02
    1.548715e+01    7.438338e+02    8.498220e-02    2.762928e+07    7.581410e-09    7.500755e-14    4.941629e-09    8.257535e-10    5.300000e-01    5.136673e-01    8.526646e-02
    1.500342e+01    7.531232e+02    9.897845e-02    3.045190e+07    7.761340e-09    8.151270e-14    5.204720e-09    8.658790e-10    5.400000e-01    5.136673e-01    8.967550e-02
    1.451429e+01    7.613822e+02    1.147200e-01    3.337938e+07    7.939200e-09    8.841890e-14    5.464365e-09    9.051920e-10    5.500000e-01    5.136673e-01    9.432137e-02
    1.402407e+01    7.685432e+02    1.323151e-01    3.639753e+07    8.113940e-09    9.573245e-14    5.719120e-09    9.434815e-10    5.600000e-01    5.136673e-01    9.919182e-02
    1.353675e+01    7.745726e+02    1.518643e-01    3.949286e+07    8.284600e-09    1.034583e-13    5.967670e-09    9.805610e-10    5.700000e-01    5.136673e-01    1.042737e-01
    1.305585e+01    7.794679e+02    1.734595e-01    4.265301e+07    8.450330e-09    1.116002e-13    6.208860e-09    1.016272e-09    5.800000e-01    5.136673e-01    1.095536e-01
    1.258437e+01    7.832512e+02    1.971839e-01    4.586694e+07    8.610400e-09    1.201612e-13    6.441710e-09    1.050484e-09    5.900000e-01    5.136673e-01    1.150177e-01
    1.212477e+01    7.859642e+02    2.231116e-01    4.912501e+07    8.764215e-09    1.291430e-13    6.665410e-09    1.083098e-09    6.000000e-01    5.136673e-01    1.206526e-01
    1.167896e+01    7.876635e+02    2.513079e-01    5.241904e+07    8.911305e-09    1.385468e-13    6.879355e-09    1.114042e-09    6.100000e-01    5.136673e-01    1.264449e-01
    1.124837e+01    7.884155e+02    2.818296e-01    5.574216e+07    9.051335e-09    1.483732e-13    7.083100e-09    1.143276e-09    6.200000e-01    5.136673e-01    1.323821e-01
    1.083400e+01    7.882930e+02    3.147256e-01    5.908881e+07    9.184080e-09    1.586222e-13    7.276385e-09    1.170780e-09    6.300000e-01    5.136673e-01    1.384521e-01
    1.043644e+01    7.873709e+02    3.500371e-01    6.245434e+07    9.309445e-09    1.692933e-13    7.459090e-09    1.196562e-09    6.400000e-01    5.136673e-01    1.446435e-01
    1.005597e+01    7.857253e+02    3.877990e-01    6.583518e+07    9.427415e-09    1.803860e-13    7.631250e-09    1.220647e-09    6.500000e-01    5.136673e-01    1.509459e-01
    9.692614e+00    7.834295e+02    4.280397e-01    6.922841e+07    9.538075e-09    1.918997e-13    7.793005e-09    1.243076e-09    6.600000e-01    5.136673e-01    1.573494e-01
    9.346182e+00    7.805555e+02    4.707825e-01    7.263174e+07    9.641580e-09    2.038337e-13    7.944600e-09    1.263908e-09    6.700000e-01    5.136673e-01    1.638449e-01
    9.016319e+00    7.771687e+02    5.160455e-01    7.604334e+07    9.738145e-09    2.161877e-13    8.086365e-09    1.283209e-09    6.800000e-01    5.136673e-01    1.704243e-01
    8.702552e+00    7.733320e+02    5.638430e-01    7.946185e+07    9.828025e-09    2.289610e-13    8.218685e-09    1.301052e-09    6.900000e-01    5.136673e-01    1.770800e-01
    8.404311e+00    7.691027e+02    6.141860e-01    8.288605e+07    9.911530e-09    2.421538e-13    8.342005e-09    1.317517e-09    7.000000e-01    5.136673e-01    1.838050e-01
    8.120972e+00    7.645323e+02    6.670815e-01    8.631501e+07    9.988970e-09    2.557665e-13    8.456785e-09    1.332688e-09    7.100000e-01    5.136673e-01    1.905931e-01
    7.851887e+00    7.596692e+02    7.225340e-01    8.974798e+07    1.006069e-08    2.697996e-13    8.563520e-09    1.346647e-09    7.200000e-01    5.136673e-01    1.974388e-01
    7.596359e+00    7.545549e+02    7.805470e-01    9.318426e+07    1.012703e-08    2.842542e-13    8.662700e-09    1.359479e-09    7.300000e-01    5.136673e-01    2.043368e-01
    7.353720e+00    7.492290e+02    8.411205e-01    9.662334e+07    1.018834e-08    2.991320e-13    8.754830e-09    1.371265e-09    7.400000e-01    5.136673e-01    2.112826e-01
    7.123286e+00    7.437245e+02    9.042540e-01    1.000647e+08    1.024496e-08    3.144350e-13    8.840385e-09    1.382085e-09    7.500000e-01    5.136673e-01    2.182721e-01
    6.904400e+00    7.380720e+02    9.699445e-01    1.035078e+08    1.029722e-08    3.301658e-13    8.919850e-09    1.392016e-09    7.600000e-01    5.136673e-01    2.253016e-01
    6.696404e+00    7.322968e+02    1.038190e+00    1.069521e+08    1.034545e-08    3.463274e-13    8.993680e-09    1.401130e-09    7.700000e-01    5.136673e-01    2.323676e-01
    6.498689e+00    7.264233e+02    1.108986e+00    1.103974e+08    1.038994e-08    3.629236e-13    9.062305e-09    1.409495e-09    7.800000e-01    5.136673e-01    2.394672e-01
    6.310654e+00    7.204715e+02    1.182327e+00    1.138430e+08    1.043100e-08    3.799582e-13    9.126135e-09    1.417175e-09    7.900000e-01    5.136673e-01    2.465978e-01
    6.131741e+00    7.144591e+02    1.258209e+00    1.172887e+08    1.046890e-08    3.974358e-13    9.185565e-09    1.424230e-09    8.000000e-01    5.136673e-01    2.537568e-01
    5.961412e+00    7.084015e+02    1.336626e+00    1.207338e+08    1.050389e-08    4.153618e-13    9.240950e-09    1.430716e-09    8.100000e-01    5.136673e-01    2.609422e-01
    5.799158e+00    7.023119e+02    1.417571e+00    1.241781e+08    1.053621e-08    4.337416e-13    9.292630e-09    1.436684e-09    8.200000e-01    5.136673e-01    2.681519e-01
    5.644499e+00    6.962018e+02    1.501038e+00    1.276211e+08    1.056610e-08    4.525815e-13    9.340920e-09    1.442181e-09    8.300000e-01    5.136673e-01    2.753844e-01
    5.496989e+00    6.900810e+02    1.587021e+00    1.310623e+08    1.059376e-08    4.718879e-13    9.386110e-09    1.447250e-09    8.400000e-01    5.136673e-01    2.826379e-01
    5.356211e+00    6.839586e+02    1.675512e+00    1.345015e+08    1.061936e-08    4.916680e-13    9.428460e-09    1.451930e-09    8.500000e-01    5.136673e-01    2.899111e-01
    5.221757e+00    6.778406e+02    1.766506e+00    1.379380e+08    1.064310e-08    5.119295e-13    9.468220e-09    1.456258e-09    8.600000e-01    5.136673e-01    2.972027e-01
    5.093264e+00    6.717336e+02    1.859995e+00    1.413716e+08    1.066512e-08    5.326800e-13    9.505615e-09    1.460267e-09    8.700000e-01    5.136673e-01    3.045117e-01
    4.970384e+00    6.656434e+02    1.955973e+00    1.448020e+08    1.068559e-08    5.539290e-13    9.540845e-09    1.463986e-09    8.800000e-01    5.136673e-01    3.118370e-01
    4.852791e+00    6.595736e+02    2.054431e+00    1.482285e+08    1.070463e-08    5.756840e-13    9.574100e-09    1.467443e-09    8.900000e-01    5.136673e-01    3.191776e-01
    4.740180e+00    6.535278e+02    2.155365e+00    1.516510e+08    1.072236e-08    5.979560e-13    9.605555e-09    1.470662e-09    9.000000e-01    5.136673e-01    3.265329e-01
    4.632268e+00    6.475090e+02    2.258765e+00    1.550690e+08    1.073891e-08    6.207540e-13    9.635360e-09    1.473664e-09    9.100000e-01    5.136673e-01    3.339019e-01
    4.528790e+00    6.415201e+02    2.364626e+00    1.584821e+08    1.075436e-08    6.440880e-13    9.663660e-09    1.476471e-09    9.200000e-01    5.136673e-01    3.412842e-01
    4.429500e+00    6.355630e+02    2.472940e+00    1.618901e+08    1.076882e-08    6.679700e-13    9.690580e-09    1.479101e-09    9.300000e-01    5.136673e-01    3.486790e-01
    4.334163e+00    6.296390e+02    2.583701e+00    1.652927e+08    1.078237e-08    6.924105e-13    9.716245e-09    1.481569e-09    9.400000e-01    5.136673e-01    3.560858e-01
    4.242563e+00    6.237497e+02    2.696902e+00    1.686894e+08    1.079508e-08    7.174210e-13    9.740750e-09    1.483891e-09    9.500000e-01    5.136673e-01    3.635042e-01
    4.154500e+00    6.178961e+02    2.812534e+00    1.720802e+08    1.080702e-08    7.430140e-13    9.764200e-09    1.486079e-09    9.600000e-01    5.136673e-01    3.709337e-01
    4.069783e+00    6.120788e+02    2.930592e+00    1.754645e+08    1.081826e-08    7.692020e-13    9.786675e-09    1.488146e-09    9.700000e-01    5.136673e-01    3.783739e-01
    3.988233e+00    6.062982e+02    3.051070e+00    1.788423e+08    1.082886e-08    7.959980e-13    9.808260e-09    1.490103e-09    9.800000e-01    5.136673e-01    3.858244e-01
    3.909688e+00    6.005552e+02    3.173958e+00    1.822132e+08    1.083886e-08    8.234160e-13    9.829025e-09    1.491958e-09    9.900000e-01    5.136673e-01    3.932850e-01
    3.833990e+00    5.948496e+02    3.299250e+00    1.855769e+08    1.084832e-08    8.514695e-13    9.849040e-09    1.493722e-09    1.000000e+00    5.136673e-01    4.007553e-01
    3.760997e+00    5.891820e+02    3.426941e+00    1.889335e+08    1.085728e-08    8.801730e-13    9.868355e-09    1.495402e-09    1.010000e+00    5.136673e-01    4.082350e-01
    3.690568e+00    5.835517e+02    3.557022e+00    1.922825e+08    1.086577e-08    9.095415e-13    9.887030e-09    1.497005e-09    1.020000e+00    5.136673e-01    4.157240e-01
    3.622579e+00    5.779591e+02    3.689488e+00    1.956237e+08    1.087383e-08    9.395905e-13    9.905110e-09    1.498538e-09    1.030000e+00    5.136673e-01    4.232220e-01
    3.556908e+00    5.724039e+02    3.824330e+00    1.989572e+08    1.088150e-08    9.703360e-13    9.922640e-09    1.500005e-09    1.040000e+00    5.136673e-01    4.307289e-01
    3.493445e+00    5.668860e+02    3.961541e+00    2.022825e+08    1.088880e-08    1.001794e-12    9.939660e-09    1.501414e-09    1.050000e+00    5.136673e-01    4.382443e-01
    3.432081e+00    5.614049e+02    4.101116e+00    2.055996e+08    1.089576e-08    1.033983e-12    9.956210e-09    1.502767e-09    1.060000e+00    5.136673e-01    4.457682e-01
    3.372719e+00    5.559605e+02    4.243046e+00    2.089084e+08    1.090240e-08    1.066918e-12    9.972320e-09    1.504070e-09    1.070000e+00    5.136673e-01    4.533005e-01
    3.315264e+00    5.505522e+02    4.387325e+00    2.122086e+08    1.090875e-08    1.100618e-12    9.988020e-09    1.505327e-09    1.080000e+00    5.136673e-01    4.608410e-01
    3.259630e+00    5.451800e+02    4.533946e+00    2.155003e+08    1.091483e-08    1.135103e-12    1.000334e-08    1.506539e-09    1.090000e+00    5.136673e-01    4.683895e-01
    3.205732e+00    5.398433e+02    4.682902e+00    2.187833e+08    1.092064e-08    1.170390e-12    1.001830e-08    1.507712e-09    1.100000e+00    5.136673e-01    4.759461e-01
    3.153492e+00    5.345415e+02    4.834187e+00    2.220574e+08    1.092623e-08    1.206500e-12    1.003293e-08    1.508848e-09    1.110000e+00    5.136673e-01    4.835105e-01
    3.102838e+00    5.292744e+02    4.987792e+00    2.253225e+08    1.093158e-08    1.243453e-12    1.004724e-08    1.509950e-09    1.120000e+00    5.136673e-01    4.910827e-01
    3.053700e+00    5.240414e+02    5.143710e+00    2.285785e+08    1.093673e-08    1.281269e-12    1.006126e-08    1.511020e-09    1.130000e+00    5.136673e-01    4.986627e-01
    3.006011e+00    5.188423e+02    5.301935e+00    2.318255e+08    1.094168e-08    1.319972e-12    1.007501e-08    1.512059e-09    1.140000e+00    5.136673e-01    5.062503e-01
    2.959711e+00    5.136766e+02    5.462460e+00    2.350633e+08    1.094644e-08    1.359582e-12    1.008849e-08    1.513070e-09    1.150000e+00    5.136673e-01    5.138456e-01
    2.914738e+00    5.085435e+02    5.625280e+00    2.382917e+08    1.095103e-08    1.400122e-12    1.010173e-08    1.514054e-09    1.160000e+00    5.136673e-01    5.214484e-01
    2.871041e+00    5.034428e+02    5.790385e+00    2.415109e+08    1.095545e-08    1.441616e-12    1.011473e-08    1.515014e-09    1.170000e+00    5.136673e-01    5.290587e-01
    2.828565e+00    4.983740e+02    5.957765e+00    2.447205e+08    1.095972e-08    1.484088e-12    1.012752e-08    1.515950e-09    1.180000e+00    5.136673e-01    5.366765e-01
    2.787259e+00    4.933367e+02    6.127420e+00    2.479206e+08    1.096384e-08    1.527563e-12    1.014009e-08    1.516865e-09    1.190000e+00    5.136673e-01    5.443018e-01
    2.747080e+00    4.883304e+02    6.299335e+00    2.511111e+08    1.096781e-08    1.572067e-12    1.015247e-08    1.517758e-09    1.200000e+00    5.136673e-01    5.519344e-01
    2.707978e+00    4.833547e+02    6.473510e+00    2.542921e+08    1.097166e-08    1.617626e-12    1.016465e-08    1.518632e-09    1.210000e+00    5.136673e-01    5.595745e-01
    2.669915e+00    4.784092e+02    6.649935e+00    2.574634e+08    1.097538e-08    1.664268e-12    1.017666e-08    1.519488e-09    1.220000e+00    5.136673e-01    5.672219e-01
    2.632847e+00    4.734932e+02    6.828605e+00    2.606249e+08    1.097898e-08    1.712019e-12    1.018850e-08    1.520326e-09    1.230000e+00    5.136673e-01    5.748767e-01
    2.596737e+00    4.686065e+02    7.009510e+00    2.637765e+08    1.098246e-08    1.760911e-12    1.020017e-08    1.521147e-09    1.240000e+00    5.136673e-01    5.825388e-01
    2.561551e+00    4.637486e+02    7.192640e+00    2.669185e+08    1.098583e-08    1.810971e-12    1.021168e-08    1.521952e-09    1.250000e+00    5.136673e-01    5.902083e-01
    2.527253e+00    4.589191e+02    7.377990e+00    2.700504e+08    1.098910e-08    1.862232e-12    1.022304e-08    1.522742e-09    1.260000e+00    5.136673e-01    5.978851e-01
