# GF180MCU-D nfet_03v3 gm/ID Processed Lookup Table
# Corner: fs
# Temperature: 85C
# W = 2.0 um
# L = 2 um (2000 nm)
# Columns: gm/id [1/V]  gm/gds [V/V]  id/W [A/m]  ft [Hz]  Cgg/W [F/m]  Cgd/W [F/m]  Cgs/W [F/m]  Cdb/W [F/m]  vgs [V]  vth [V]  vdsat [V]
# vdsat = BSIM saturation voltage (|VDS|_sat, positive); use for headroom / saturation / cascode-bias calculations
#           gm/id          gm/gds            id/W              ft           Cgg/W           Cgd/W           Cgs/W           Cdb/W             vgs             vth           vdsat
    2.284973e+01    4.747916e+02    9.844445e-05    1.363943e+05    2.624801e-09    9.604425e-16    7.736700e-11    1.718094e-11    1.800000e-01    5.226811e-01    4.784506e-02
    2.283901e+01    4.738500e+02    1.237117e-04    1.714894e+05    2.622232e-09    1.072274e-15    8.722130e-11    1.911067e-11    1.900000e-01    5.226811e-01    4.785715e-02
    2.281490e+01    4.728284e+02    1.554370e-04    2.153715e+05    2.620625e-09    1.197105e-15    9.828635e-11    2.125808e-11    2.000000e-01    5.226811e-01    4.787232e-02
    2.277860e+01    4.717226e+02    1.952389e-04    2.701463e+05    2.620080e-09    1.336457e-15    1.107042e-10    2.364713e-11    2.100000e-01    5.226811e-01    4.789135e-02
    2.273099e+01    4.705312e+02    2.451297e-04    3.383888e+05    2.620707e-09    1.492029e-15    1.246315e-10    2.630405e-11    2.200000e-01    5.226811e-01    4.791518e-02
    2.267267e+01    4.692537e+02    3.076062e-04    4.232349e+05    2.622627e-09    1.665712e-15    1.402401e-10    2.925739e-11    2.300000e-01    5.226811e-01    4.794498e-02
    2.260401e+01    4.678916e+02    3.857612e-04    5.284865e+05    2.625973e-09    1.859609e-15    1.577178e-10    3.253819e-11    2.400000e-01    5.226811e-01    4.798222e-02
    2.252523e+01    4.664496e+02    4.834168e-04    6.587312e+05    2.630891e-09    2.076057e-15    1.772692e-10    3.617998e-11    2.500000e-01    5.226811e-01    4.802868e-02
    2.243647e+01    4.649366e+02    6.052865e-04    8.194776e+05    2.637538e-09    2.317644e-15    1.991163e-10    4.021886e-11    2.600000e-01    5.226811e-01    4.808654e-02
    2.233779e+01    4.633652e+02    7.571700e-04    1.017303e+06    2.646083e-09    2.587235e-15    2.234983e-10    4.469349e-11    2.700000e-01    5.226811e-01    4.815848e-02
    2.222925e+01    4.617544e+02    9.461840e-04    1.260016e+06    2.656713e-09    2.887994e-15    2.506722e-10    4.964499e-11    2.800000e-01    5.226811e-01    4.824772e-02
    2.211095e+01    4.601293e+02    1.181042e-03    1.556836e+06    2.669622e-09    3.223407e-15    2.809122e-10    5.511685e-11    2.900000e-01    5.226811e-01    4.835820e-02
    2.198301e+01    4.585235e+02    1.472381e-03    1.918581e+06    2.685019e-09    3.597307e-15    3.145087e-10    6.115475e-11    3.000000e-01    5.226811e-01    4.849460e-02
    2.184569e+01    4.569786e+02    1.833153e-03    2.357863e+06    2.703125e-09    4.013894e-15    3.517676e-10    6.780615e-11    3.100000e-01    5.226811e-01    4.866255e-02
    2.169931e+01    4.555458e+02    2.279089e-03    2.889306e+06    2.724168e-09    4.477762e-15    3.930073e-10    7.511995e-11    3.200000e-01    5.226811e-01    4.886870e-02
    2.154435e+01    4.542867e+02    2.829236e-03    3.529756e+06    2.748388e-09    4.993914e-15    4.385564e-10    8.314580e-11    3.300000e-01    5.226811e-01    4.912089e-02
    2.138132e+01    4.532720e+02    3.506601e-03    4.298503e+06    2.776027e-09    5.567790e-15    4.887498e-10    9.193345e-11    3.400000e-01    5.226811e-01    4.942822e-02
    2.121083e+01    4.525832e+02    4.338894e-03    5.217511e+06    2.807330e-09    6.205265e-15    5.439230e-10    1.015318e-10    3.500000e-01    5.226811e-01    4.980122e-02
    2.103346e+01    4.523080e+02    5.359400e-03    6.311617e+06    2.842540e-09    6.912685e-15    6.044070e-10    1.119879e-10    3.600000e-01    5.226811e-01    5.025189e-02
    2.084969e+01    4.525398e+02    6.607985e-03    7.608721e+06    2.881888e-09    7.696845e-15    6.705200e-10    1.233454e-10    3.700000e-01    5.226811e-01    5.079374e-02
    2.065979e+01    4.533735e+02    8.132240e-03    9.139905e+06    2.925597e-09    8.565000e-15    7.425585e-10    1.356434e-10    3.800000e-01    5.226811e-01    5.144179e-02
    2.046362e+01    4.548997e+02    9.988795e-03    1.093944e+07    2.973863e-09    9.524855e-15    8.207875e-10    1.489145e-10    3.900000e-01    5.226811e-01    5.221246e-02
    2.026063e+01    4.572001e+02    1.224474e-02    1.304461e+07    3.026854e-09    1.058453e-14    9.054300e-10    1.631832e-10    4.000000e-01    5.226811e-01    5.312338e-02
    2.004964e+01    4.603392e+02    1.497916e-02    1.549533e+07    3.084703e-09    1.175258e-14    9.966530e-10    1.784643e-10    4.100000e-01    5.226811e-01    5.419317e-02
    1.982883e+01    4.643598e+02    1.828473e-02    1.833332e+07    3.147491e-09    1.303785e-14    1.094559e-09    1.947606e-10    4.200000e-01    5.226811e-01    5.544101e-02
    1.959580e+01    4.692740e+02    2.226922e-02    2.160100e+07    3.215246e-09    1.444953e-14    1.199170e-09    2.120613e-10    4.300000e-01    5.226811e-01    5.688620e-02
    1.934766e+01    4.750601e+02    2.705686e-02    2.533982e+07    3.287930e-09    1.599702e-14    1.310417e-09    2.303407e-10    4.400000e-01    5.226811e-01    5.854764e-02
    1.908123e+01    4.816584e+02    3.278943e-02    2.958823e+07    3.365435e-09    1.768986e-14    1.428131e-09    2.495568e-10    4.500000e-01    5.226811e-01    6.044320e-02
    1.879339e+01    4.889722e+02    3.962666e-02    3.437947e+07    3.447575e-09    1.953767e-14    1.552037e-09    2.696505e-10    4.600000e-01    5.226811e-01    6.258914e-02
    1.848138e+01    4.968689e+02    4.774628e-02    3.973905e+07    3.534081e-09    2.155002e-14    1.681746e-09    2.905454e-10    4.700000e-01    5.226811e-01    6.499954e-02
    1.814314e+01    5.051868e+02    5.734295e-02    4.568270e+07    3.624606e-09    2.373632e-14    1.816755e-09    3.121481e-10    4.800000e-01    5.226811e-01    6.768577e-02
    1.777760e+01    5.137425e+02    6.862655e-02    5.221462e+07    3.718719e-09    2.610575e-14    1.956454e-09    3.343498e-10    4.900000e-01    5.226811e-01    7.065611e-02
    1.738486e+01    5.223417e+02    8.181965e-02    5.932665e+07    3.815920e-09    2.866711e-14    2.100132e-09    3.570276e-10    5.000000e-01    5.226811e-01    7.391551e-02
    1.696625e+01    5.307892e+02    9.715390e-02    6.699823e+07    3.915640e-09    3.142876e-14    2.246990e-09    3.800472e-10    5.100000e-01    5.226811e-01    7.746543e-02
    1.652418e+01    5.388990e+02    1.148664e-01    7.519736e+07    4.017262e-09    3.439848e-14    2.396160e-09    4.032660e-10    5.200000e-01    5.226811e-01    8.130400e-02
    1.606207e+01    5.465040e+02    1.351950e-01    8.388255e+07    4.120128e-09    3.758347e-14    2.546725e-09    4.265369e-10    5.300000e-01    5.226811e-01    8.542611e-02
    1.558405e+01    5.534620e+02    1.583745e-01    9.300512e+07    4.223561e-09    4.099017e-14    2.697742e-09    4.497115e-10    5.400000e-01    5.226811e-01    8.982386e-02
    1.509463e+01    5.596605e+02    1.846321e-01    1.025121e+08    4.326880e-09    4.462435e-14    2.848265e-09    4.726447e-10    5.500000e-01    5.226811e-01    9.448688e-02
    1.459849e+01    5.650185e+02    2.141842e-01    1.123489e+08    4.429416e-09    4.849097e-14    2.997376e-09    4.951980e-10    5.600000e-01    5.226811e-01    9.940287e-02
    1.410017e+01    5.694858e+02    2.472329e-01    1.224620e+08    4.530536e-09    5.259425e-14    3.144198e-09    5.172425e-10    5.700000e-01    5.226811e-01    1.045580e-01
    1.360393e+01    5.730409e+02    2.839646e-01    1.328009e+08    4.629647e-09    5.693770e-14    3.287924e-09    5.386625e-10    5.800000e-01    5.226811e-01    1.099376e-01
    1.311356e+01    5.756863e+02    3.245474e-01    1.433194e+08    4.726219e-09    6.152415e-14    3.427829e-09    5.593570e-10    5.900000e-01    5.226811e-01    1.155263e-01
    1.263230e+01    5.774467e+02    3.691315e-01    1.539771e+08    4.819784e-09    6.635565e-14    3.563286e-09    5.792410e-10    6.000000e-01    5.226811e-01    1.213086e-01
    1.216285e+01    5.783621e+02    4.178484e-01    1.647393e+08    4.909953e-09    7.143380e-14    3.693766e-09    5.982475e-10    6.100000e-01    5.226811e-01    1.272691e-01
    1.170734e+01    5.784841e+02    4.708116e-01    1.755770e+08    4.996407e-09    7.675965e-14    3.818851e-09    6.163260e-10    6.200000e-01    5.226811e-01    1.333931e-01
    1.126733e+01    5.778720e+02    5.281175e-01    1.864669e+08    5.078905e-09    8.233385e-14    3.938228e-09    6.334420e-10    6.300000e-01    5.226811e-01    1.396661e-01
    1.084398e+01    5.765908e+02    5.898460e-01    1.973906e+08    5.157285e-09    8.815665e-14    4.051687e-09    6.495785e-10    6.400000e-01    5.226811e-01    1.460748e-01
    1.043796e+01    5.747054e+02    6.560630e-01    2.083338e+08    5.231445e-09    9.422815e-14    4.159112e-09    6.647305e-10    6.500000e-01    5.226811e-01    1.526063e-01
    1.004963e+01    5.722815e+02    7.268210e-01    2.192861e+08    5.301350e-09    1.005482e-13    4.260472e-09    6.789070e-10    6.600000e-01    5.226811e-01    1.592489e-01
    9.679029e+00    5.693817e+02    8.021605e-01    2.302396e+08    5.367020e-09    1.071165e-13    4.355816e-09    6.921270e-10    6.700000e-01    5.226811e-01    1.659917e-01
    9.325982e+00    5.660651e+02    8.821125e-01    2.411888e+08    5.428520e-09    1.139328e-13    4.445251e-09    7.044185e-10    6.800000e-01    5.226811e-01    1.728249e-01
    8.990140e+00    5.623880e+02    9.666980e-01    2.521304e+08    5.485955e-09    1.209970e-13    4.528943e-09    7.158165e-10    6.900000e-01    5.226811e-01    1.797392e-01
    8.671007e+00    5.584011e+02    1.055931e+00    2.630616e+08    5.539465e-09    1.283089e-13    4.607096e-09    7.263615e-10    7.000000e-01    5.226811e-01    1.867265e-01
    8.367992e+00    5.541509e+02    1.149819e+00    2.739811e+08    5.589210e-09    1.358685e-13    4.679949e-09    7.360975e-10    7.100000e-01    5.226811e-01    1.937793e-01
    8.080433e+00    5.496789e+02    1.248365e+00    2.848878e+08    5.635370e-09    1.436761e-13    4.747764e-09    7.450710e-10    7.200000e-01    5.226811e-01    2.008909e-01
    7.807644e+00    5.450231e+02    1.351565e+00    2.957819e+08    5.678130e-09    1.517320e-13    4.810816e-09    7.533300e-10    7.300000e-01    5.226811e-01    2.080553e-01
    7.548891e+00    5.402159e+02    1.459413e+00    3.066621e+08    5.717700e-09    1.600369e-13    4.869391e-09    7.609225e-10    7.400000e-01    5.226811e-01    2.152670e-01
    7.303458e+00    5.352870e+02    1.571900e+00    3.175292e+08    5.754265e-09    1.685919e-13    4.923774e-09    7.678955e-10    7.500000e-01    5.226811e-01    2.225212e-01
    7.070623e+00    5.302618e+02    1.689015e+00    3.283823e+08    5.788040e-09    1.773980e-13    4.974250e-09    7.742965e-10    7.600000e-01    5.226811e-01    2.298135e-01
    6.849685e+00    5.251626e+02    1.810743e+00    3.392215e+08    5.819210e-09    1.864569e-13    5.021095e-09    7.801695e-10    7.700000e-01    5.226811e-01    2.371401e-01
    6.639961e+00    5.200089e+02    1.937069e+00    3.500468e+08    5.847965e-09    1.957702e-13    5.064580e-09    7.855570e-10    7.800000e-01    5.226811e-01    2.444976e-01
    6.440796e+00    5.148171e+02    2.067978e+00    3.608573e+08    5.874490e-09    2.053401e-13    5.104960e-09    7.904995e-10    7.900000e-01    5.226811e-01    2.518828e-01
    6.251565e+00    5.096015e+02    2.203451e+00    3.716524e+08    5.898960e-09    2.151691e-13    5.142485e-09    7.950350e-10    8.000000e-01    5.226811e-01    2.592930e-01
    6.071671e+00    5.043743e+02    2.343472e+00    3.824319e+08    5.921530e-09    2.252599e-13    5.177375e-09    7.991985e-10    8.100000e-01    5.226811e-01    2.667258e-01
    5.900555e+00    4.991462e+02    2.488021e+00    3.931948e+08    5.942365e-09    2.356155e-13    5.209850e-09    8.030240e-10    8.200000e-01    5.226811e-01    2.741790e-01
    5.737683e+00    4.939255e+02    2.637080e+00    4.039402e+08    5.961600e-09    2.462393e-13    5.240110e-09    8.065405e-10    8.300000e-01    5.226811e-01    2.816506e-01
    5.582556e+00    4.887198e+02    2.790629e+00    4.146670e+08    5.979375e-09    2.571349e-13    5.268345e-09    8.097770e-10    8.400000e-01    5.226811e-01    2.891389e-01
    5.434707e+00    4.835355e+02    2.948650e+00    4.253746e+08    5.995810e-09    2.683063e-13    5.294730e-09    8.127590e-10    8.500000e-01    5.226811e-01    2.966425e-01
    5.293692e+00    4.783772e+02    3.111123e+00    4.360615e+08    6.011020e-09    2.797578e-13    5.319420e-09    8.155100e-10    8.600000e-01    5.226811e-01    3.041598e-01
    5.159103e+00    4.732495e+02    3.278029e+00    4.467270e+08    6.025110e-09    2.914937e-13    5.342560e-09    8.180520e-10    8.700000e-01    5.226811e-01    3.116897e-01
    5.030554e+00    4.681558e+02    3.449350e+00    4.573698e+08    6.038175e-09    3.035191e-13    5.364290e-09    8.204040e-10    8.800000e-01    5.226811e-01    3.192311e-01
    4.907687e+00    4.630988e+02    3.625065e+00    4.679889e+08    6.050305e-09    3.158389e-13    5.384725e-09    8.225835e-10    8.900000e-01    5.226811e-01    3.267830e-01
    4.790164e+00    4.580805e+02    3.805157e+00    4.785826e+08    6.061585e-09    3.284587e-13    5.403990e-09    8.246075e-10    9.000000e-01    5.226811e-01    3.343446e-01
    4.677675e+00    4.531030e+02    3.989605e+00    4.891502e+08    6.072085e-09    3.413840e-13    5.422175e-09    8.264905e-10    9.100000e-01    5.226811e-01    3.419149e-01
    4.569927e+00    4.481674e+02    4.178391e+00    4.996907e+08    6.081870e-09    3.546208e-13    5.439380e-09    8.282455e-10    9.200000e-01    5.226811e-01    3.494935e-01
    4.466646e+00    4.432748e+02    4.371497e+00    5.102029e+08    6.091005e-09    3.681754e-13    5.455685e-09    8.298840e-10    9.300000e-01    5.226811e-01    3.570795e-01
    4.367580e+00    4.384257e+02    4.568903e+00    5.206851e+08    6.099550e-09    3.820542e-13    5.471175e-09    8.314180e-10    9.400000e-01    5.226811e-01    3.646725e-01
    4.272492e+00    4.336207e+02    4.770591e+00    5.311374e+08    6.107545e-09    3.962640e-13    5.485915e-09    8.328560e-10    9.500000e-01    5.226811e-01    3.722720e-01
    4.181160e+00    4.288601e+02    4.976543e+00    5.415580e+08    6.115045e-09    4.108120e-13    5.499965e-09    8.342075e-10    9.600000e-01    5.226811e-01    3.798774e-01
    4.093378e+00    4.241439e+02    5.186740e+00    5.519466e+08    6.122085e-09    4.257054e-13    5.513390e-09    8.354805e-10    9.700000e-01    5.226811e-01    3.874884e-01
    4.008955e+00    4.194718e+02    5.401160e+00    5.623016e+08    6.128710e-09    4.409518e-13    5.526235e-09    8.366815e-10    9.800000e-01    5.226811e-01    3.951046e-01
    3.927706e+00    4.148441e+02    5.619795e+00    5.726226e+08    6.134950e-09    4.565591e-13    5.538555e-09    8.378175e-10    9.900000e-01    5.226811e-01    4.027257e-01
    3.849469e+00    4.102604e+02    5.842615e+00    5.829086e+08    6.140840e-09    4.725355e-13    5.550390e-09    8.388940e-10    1.000000e+00    5.226811e-01    4.103514e-01
    3.774085e+00    4.057202e+02    6.069605e+00    5.931589e+08    6.146405e-09    4.888896e-13    5.561775e-09    8.399165e-10    1.010000e+00    5.226811e-01    4.179813e-01
    3.701405e+00    4.012230e+02    6.300750e+00    6.033732e+08    6.151670e-09    5.056300e-13    5.572750e-09    8.408895e-10    1.020000e+00    5.226811e-01    4.256154e-01
    3.631293e+00    3.967689e+02    6.536030e+00    6.135505e+08    6.156660e-09    5.227655e-13    5.583350e-09    8.418175e-10    1.030000e+00    5.226811e-01    4.332533e-01
    3.563617e+00    3.923567e+02    6.775430e+00    6.236898e+08    6.161400e-09    5.403065e-13    5.593595e-09    8.427040e-10    1.040000e+00    5.226811e-01    4.408949e-01
    3.498261e+00    3.879861e+02    7.018925e+00    6.337915e+08    6.165900e-09    5.582610e-13    5.603515e-09    8.435520e-10    1.050000e+00    5.226811e-01    4.485399e-01
    3.435107e+00    3.836570e+02    7.266505e+00    6.438545e+08    6.170185e-09    5.766405e-13    5.613135e-09    8.443655e-10    1.060000e+00    5.226811e-01    4.561883e-01
    3.374052e+00    3.793683e+02    7.518145e+00    6.538783e+08    6.174270e-09    5.954545e-13    5.622480e-09    8.451470e-10    1.070000e+00    5.226811e-01    4.638398e-01
    3.314995e+00    3.751195e+02    7.773830e+00    6.638625e+08    6.178170e-09    6.147140e-13    5.631565e-09    8.458990e-10    1.080000e+00    5.226811e-01    4.714944e-01
    3.257842e+00    3.709103e+02    8.033540e+00    6.738070e+08    6.181895e-09    6.344295e-13    5.640405e-09    8.466230e-10    1.090000e+00    5.226811e-01    4.791520e-01
    3.202502e+00    3.667399e+02    8.297265e+00    6.837115e+08    6.185455e-09    6.546125e-13    5.649025e-09    8.473225e-10    1.100000e+00    5.226811e-01    4.868124e-01
    3.148897e+00    3.626078e+02    8.564975e+00    6.935754e+08    6.188865e-09    6.752745e-13    5.657435e-09    8.479985e-10    1.110000e+00    5.226811e-01    4.944755e-01
    3.096945e+00    3.585136e+02    8.836660e+00    7.033984e+08    6.192135e-09    6.964280e-13    5.665645e-09    8.486525e-10    1.120000e+00    5.226811e-01    5.021414e-01
    3.046572e+00    3.544562e+02    9.112305e+00    7.131800e+08    6.195275e-09    7.180850e-13    5.673675e-09    8.492865e-10    1.130000e+00    5.226811e-01    5.098098e-01
    2.997712e+00    3.504356e+02    9.391880e+00    7.229207e+08    6.198290e-09    7.402580e-13    5.681535e-09    8.499015e-10    1.140000e+00    5.226811e-01    5.174808e-01
    2.950294e+00    3.464510e+02    9.675380e+00    7.326195e+08    6.201190e-09    7.629605e-13    5.689225e-09    8.504990e-10    1.150000e+00    5.226811e-01    5.251543e-01
    2.904261e+00    3.425015e+02    9.962780e+00    7.422768e+08    6.203980e-09    7.862060e-13    5.696770e-09    8.510800e-10    1.160000e+00    5.226811e-01    5.328302e-01
    2.859551e+00    3.385872e+02    1.025407e+01    7.518926e+08    6.206665e-09    8.100085e-13    5.704165e-09    8.516460e-10    1.170000e+00    5.226811e-01    5.405085e-01
    2.816110e+00    3.347072e+02    1.054922e+01    7.614659e+08    6.209255e-09    8.343820e-13    5.711430e-09    8.521975e-10    1.180000e+00    5.226811e-01    5.481893e-01
    2.773886e+00    3.308608e+02    1.084821e+01    7.709970e+08    6.211755e-09    8.593420e-13    5.718560e-09    8.527355e-10    1.190000e+00    5.226811e-01    5.558723e-01
    2.732828e+00    3.270480e+02    1.115104e+01    7.804862e+08    6.214165e-09    8.849025e-13    5.725570e-09    8.532605e-10    1.200000e+00    5.226811e-01    5.635577e-01
    2.692890e+00    3.232676e+02    1.145768e+01    7.899327e+08    6.216495e-09    9.110805e-13    5.732465e-09    8.537735e-10    1.210000e+00    5.226811e-01    5.712454e-01
    2.654026e+00    3.195196e+02    1.176813e+01    7.993370e+08    6.218745e-09    9.378920e-13    5.739250e-09    8.542755e-10    1.220000e+00    5.226811e-01    5.789355e-01
    2.616196e+00    3.158034e+02    1.208234e+01    8.086989e+08    6.220920e-09    9.653530e-13    5.745930e-09    8.547660e-10    1.230000e+00    5.226811e-01    5.866278e-01
    2.579359e+00    3.121184e+02    1.240031e+01    8.180174e+08    6.223030e-09    9.934810e-13    5.752510e-09    8.552470e-10    1.240000e+00    5.226811e-01    5.943224e-01
    2.543474e+00    3.084642e+02    1.272203e+01    8.272942e+08    6.225065e-09    1.022294e-12    5.758995e-09    8.557180e-10    1.250000e+00    5.226811e-01    6.020193e-01
    2.508508e+00    3.048402e+02    1.304747e+01    8.365270e+08    6.227045e-09    1.051810e-12    5.765385e-09    8.561795e-10    1.260000e+00    5.226811e-01    6.097185e-01
