# GF180MCU-D pfet_03v3 gm/ID Processed Lookup Table
# Corner: ff
# Temperature: 25C
# W = 2.0 um
# L = 0.5 um (500 nm)
# Columns: gm/id [1/V]  gm/gds [V/V]  id/W [A/m]  ft [Hz]  Cgg/W [F/m]  Cgd/W [F/m]  Cgs/W [F/m]  Cdb/W [F/m]  vgs [V]  vth [V]  vdsat [V]
# vdsat = BSIM saturation voltage (|VDS|_sat, positive); use for headroom / saturation / cascode-bias calculations
#           gm/id          gm/gds            id/W              ft           Cgg/W           Cgd/W           Cgs/W           Cdb/W             vgs             vth           vdsat
    4.298187e-01    1.776293e+00    1.467292e+02    5.655528e+09    1.774798e-09    1.004883e-10    1.606041e-09    2.650830e-10   -3.300000e+00    6.630304e-01    2.059647e+00
    4.331138e-01    1.804502e+00    1.460985e+02    5.679377e+09    1.773240e-09    9.735140e-11    1.606777e-09    2.648818e-10   -3.290000e+00    6.630304e-01    2.052172e+00
    4.364536e-01    1.833488e+00    1.454637e+02    5.703201e+09    1.771716e-09    9.428415e-11    1.607477e-09    2.646825e-10   -3.280000e+00    6.630304e-01    2.044697e+00
    4.398290e-01    1.863282e+00    1.448278e+02    5.726997e+09    1.770227e-09    9.128695e-11    1.608140e-09    2.644851e-10   -3.270000e+00    6.630304e-01    2.037224e+00
    4.432439e-01    1.893917e+00    1.441897e+02    5.750758e+09    1.768773e-09    8.836015e-11    1.608764e-09    2.642893e-10   -3.260000e+00    6.630304e-01    2.029752e+00
    4.466985e-01    1.925423e+00    1.435495e+02    5.774480e+09    1.767353e-09    8.550385e-11    1.609354e-09    2.640954e-10   -3.250000e+00    6.630304e-01    2.022280e+00
    4.501936e-01    1.957840e+00    1.429072e+02    5.798160e+09    1.765970e-09    8.271810e-11    1.609905e-09    2.639033e-10   -3.240000e+00    6.630304e-01    2.014810e+00
    4.537296e-01    1.991202e+00    1.422628e+02    5.821794e+09    1.764623e-09    8.000280e-11    1.610421e-09    2.637130e-10   -3.230000e+00    6.630304e-01    2.007340e+00
    4.573073e-01    2.025551e+00    1.416163e+02    5.845380e+09    1.763310e-09    7.735775e-11    1.610901e-09    2.635246e-10   -3.220000e+00    6.630304e-01    1.999872e+00
    4.609270e-01    2.060924e+00    1.409676e+02    5.868909e+09    1.762033e-09    7.478260e-11    1.611345e-09    2.633381e-10   -3.210000e+00    6.630304e-01    1.992404e+00
    4.645897e-01    2.097368e+00    1.403167e+02    5.892384e+09    1.760792e-09    7.227700e-11    1.611753e-09    2.631535e-10   -3.200000e+00    6.630304e-01    1.984938e+00
    4.682955e-01    2.134926e+00    1.396638e+02    5.915797e+09    1.759586e-09    6.984040e-11    1.612127e-09    2.629708e-10   -3.190000e+00    6.630304e-01    1.977472e+00
    4.720447e-01    2.173645e+00    1.390087e+02    5.939142e+09    1.758415e-09    6.747220e-11    1.612467e-09    2.627900e-10   -3.180000e+00    6.630304e-01    1.970007e+00
    4.758387e-01    2.213577e+00    1.383514e+02    5.962422e+09    1.757279e-09    6.517165e-11    1.612772e-09    2.626111e-10   -3.170000e+00    6.630304e-01    1.962543e+00
    4.796771e-01    2.254772e+00    1.376920e+02    5.985622e+09    1.756178e-09    6.293800e-11    1.613046e-09    2.624344e-10   -3.160000e+00    6.630304e-01    1.955079e+00
    4.835611e-01    2.297287e+00    1.370305e+02    6.008748e+09    1.755111e-09    6.077035e-11    1.613286e-09    2.622595e-10   -3.150000e+00    6.630304e-01    1.947617e+00
    4.874913e-01    2.341179e+00    1.363667e+02    6.031795e+09    1.754078e-09    5.866780e-11    1.613494e-09    2.620867e-10   -3.140000e+00    6.630304e-01    1.940155e+00
    4.914673e-01    2.386507e+00    1.357009e+02    6.054750e+09    1.753078e-09    5.662930e-11    1.613671e-09    2.619160e-10   -3.130000e+00    6.630304e-01    1.932694e+00
    4.954904e-01    2.433337e+00    1.350329e+02    6.077615e+09    1.752111e-09    5.465375e-11    1.613817e-09    2.617472e-10   -3.120000e+00    6.630304e-01    1.925234e+00
    4.995607e-01    2.481734e+00    1.343628e+02    6.100385e+09    1.751177e-09    5.274010e-11    1.613933e-09    2.615805e-10   -3.110000e+00    6.630304e-01    1.917775e+00
    5.036785e-01    2.531766e+00    1.336904e+02    6.123047e+09    1.750275e-09    5.088715e-11    1.614020e-09    2.614159e-10   -3.100000e+00    6.630304e-01    1.910316e+00
    5.078445e-01    2.583511e+00    1.330160e+02    6.145606e+09    1.749404e-09    4.909369e-11    1.614078e-09    2.612533e-10   -3.090000e+00    6.630304e-01    1.902858e+00
    5.120591e-01    2.637042e+00    1.323394e+02    6.168052e+09    1.748564e-09    4.735844e-11    1.614108e-09    2.610929e-10   -3.080000e+00    6.630304e-01    1.895401e+00
    5.163223e-01    2.692439e+00    1.316607e+02    6.190375e+09    1.747754e-09    4.568012e-11    1.614112e-09    2.609346e-10   -3.070000e+00    6.630304e-01    1.887944e+00
    5.206345e-01    2.749786e+00    1.309798e+02    6.212568e+09    1.746973e-09    4.405743e-11    1.614088e-09    2.607783e-10   -3.060000e+00    6.630304e-01    1.880488e+00
    5.249958e-01    2.809171e+00    1.302969e+02    6.234628e+09    1.746222e-09    4.248904e-11    1.614039e-09    2.606241e-10   -3.050000e+00    6.630304e-01    1.873033e+00
    5.294067e-01    2.870683e+00    1.296117e+02    6.256544e+09    1.745498e-09    4.097359e-11    1.613965e-09    2.604720e-10   -3.040000e+00    6.630304e-01    1.865578e+00
    5.338671e-01    2.934419e+00    1.289245e+02    6.278310e+09    1.744802e-09    3.950973e-11    1.613867e-09    2.603220e-10   -3.030000e+00    6.630304e-01    1.858124e+00
    5.383770e-01    3.000473e+00    1.282352e+02    6.299908e+09    1.744133e-09    3.809608e-11    1.613745e-09    2.601740e-10   -3.020000e+00    6.630304e-01    1.850670e+00
    5.429367e-01    3.068950e+00    1.275437e+02    6.321337e+09    1.743489e-09    3.673129e-11    1.613600e-09    2.600282e-10   -3.010000e+00    6.630304e-01    1.843217e+00
    5.475458e-01    3.139956e+00    1.268502e+02    6.342587e+09    1.742872e-09    3.541399e-11    1.613433e-09    2.598844e-10   -3.000000e+00    6.630304e-01    1.835765e+00
    5.522042e-01    3.213595e+00    1.261546e+02    6.363636e+09    1.742279e-09    3.414280e-11    1.613245e-09    2.597426e-10   -2.990000e+00    6.630304e-01    1.828313e+00
    5.569118e-01    3.289982e+00    1.254570e+02    6.384480e+09    1.741710e-09    3.291638e-11    1.613036e-09    2.596029e-10   -2.980000e+00    6.630304e-01    1.820862e+00
    5.616680e-01    3.369228e+00    1.247573e+02    6.405100e+09    1.741164e-09    3.173338e-11    1.612806e-09    2.594652e-10   -2.970000e+00    6.630304e-01    1.813411e+00
    5.664727e-01    3.451450e+00    1.240555e+02    6.425487e+09    1.740641e-09    3.059248e-11    1.612557e-09    2.593295e-10   -2.960000e+00    6.630304e-01    1.805960e+00
    5.713251e-01    3.536769e+00    1.233517e+02    6.445620e+09    1.740139e-09    2.949236e-11    1.612290e-09    2.591958e-10   -2.950000e+00    6.630304e-01    1.798510e+00
    5.762247e-01    3.625302e+00    1.226460e+02    6.465485e+09    1.739660e-09    2.843171e-11    1.612004e-09    2.590641e-10   -2.940000e+00    6.630304e-01    1.791060e+00
    5.811707e-01    3.717172e+00    1.219383e+02    6.485070e+09    1.739200e-09    2.740928e-11    1.611700e-09    2.589343e-10   -2.930000e+00    6.630304e-01    1.783611e+00
    5.861619e-01    3.812493e+00    1.212287e+02    6.504343e+09    1.738761e-09    2.642380e-11    1.611379e-09    2.588064e-10   -2.920000e+00    6.630304e-01    1.776162e+00
    5.911980e-01    3.911392e+00    1.205172e+02    6.523298e+09    1.738340e-09    2.547405e-11    1.611042e-09    2.586804e-10   -2.910000e+00    6.630304e-01    1.768714e+00
    5.962779e-01    4.013983e+00    1.198037e+02    6.541912e+09    1.737939e-09    2.455883e-11    1.610689e-09    2.585563e-10   -2.900000e+00    6.630304e-01    1.761265e+00
    6.013996e-01    4.120379e+00    1.190885e+02    6.560161e+09    1.737555e-09    2.367694e-11    1.610321e-09    2.584340e-10   -2.890000e+00    6.630304e-01    1.753817e+00
    6.065623e-01    4.230692e+00    1.183714e+02    6.578022e+09    1.737188e-09    2.282726e-11    1.609938e-09    2.583135e-10   -2.880000e+00    6.630304e-01    1.746370e+00
    6.117646e-01    4.345024e+00    1.176525e+02    6.595476e+09    1.736838e-09    2.200865e-11    1.609541e-09    2.581949e-10   -2.870000e+00    6.630304e-01    1.738922e+00
    6.170051e-01    4.463480e+00    1.169319e+02    6.612502e+09    1.736505e-09    2.122002e-11    1.609130e-09    2.580779e-10   -2.860000e+00    6.630304e-01    1.731475e+00
    6.222822e-01    4.586143e+00    1.162095e+02    6.629074e+09    1.736186e-09    2.046031e-11    1.608705e-09    2.579627e-10   -2.850000e+00    6.630304e-01    1.724028e+00
    6.275937e-01    4.713095e+00    1.154856e+02    6.645167e+09    1.735883e-09    1.972847e-11    1.608268e-09    2.578491e-10   -2.840000e+00    6.630304e-01    1.716582e+00
    6.329386e-01    4.844410e+00    1.147600e+02    6.660762e+09    1.735594e-09    1.902350e-11    1.607818e-09    2.577372e-10   -2.830000e+00    6.630304e-01    1.709135e+00
    6.383147e-01    4.980143e+00    1.140329e+02    6.675838e+09    1.735319e-09    1.834443e-11    1.607356e-09    2.576270e-10   -2.820000e+00    6.630304e-01    1.701689e+00
    6.437206e-01    5.120340e+00    1.133042e+02    6.690365e+09    1.735057e-09    1.769032e-11    1.606883e-09    2.575183e-10   -2.810000e+00    6.630304e-01    1.694243e+00
    6.491544e-01    5.265031e+00    1.125742e+02    6.704330e+09    1.734808e-09    1.706022e-11    1.606398e-09    2.574113e-10   -2.800000e+00    6.630304e-01    1.686797e+00
    6.546148e-01    5.414232e+00    1.118427e+02    6.717711e+09    1.734571e-09    1.645326e-11    1.605903e-09    2.573057e-10   -2.790000e+00    6.630304e-01    1.679351e+00
    6.600987e-01    5.567938e+00    1.111099e+02    6.730480e+09    1.734346e-09    1.586858e-11    1.605397e-09    2.572017e-10   -2.780000e+00    6.630304e-01    1.671905e+00
    6.656065e-01    5.726139e+00    1.103758e+02    6.742629e+09    1.734133e-09    1.530535e-11    1.604881e-09    2.570990e-10   -2.770000e+00    6.630304e-01    1.664459e+00
    6.711349e-01    5.888794e+00    1.096406e+02    6.754135e+09    1.733930e-09    1.476275e-11    1.604356e-09    2.569978e-10   -2.760000e+00    6.630304e-01    1.657013e+00
    6.766836e-01    6.055856e+00    1.089042e+02    6.764985e+09    1.733738e-09    1.424001e-11    1.603820e-09    2.568981e-10   -2.750000e+00    6.630304e-01    1.649568e+00
    6.822511e-01    6.227267e+00    1.081667e+02    6.775172e+09    1.733555e-09    1.373639e-11    1.603276e-09    2.567996e-10   -2.740000e+00    6.630304e-01    1.642122e+00
    6.878358e-01    6.402934e+00    1.074283e+02    6.784677e+09    1.733382e-09    1.325115e-11    1.602723e-09    2.567025e-10   -2.730000e+00    6.630304e-01    1.634676e+00
    6.934372e-01    6.582774e+00    1.066889e+02    6.793494e+09    1.733219e-09    1.278358e-11    1.602162e-09    2.566067e-10   -2.720000e+00    6.630304e-01    1.627230e+00
    6.990552e-01    6.766683e+00    1.059487e+02    6.801621e+09    1.733064e-09    1.233304e-11    1.601592e-09    2.565121e-10   -2.710000e+00    6.630304e-01    1.619784e+00
    7.046878e-01    6.954536e+00    1.052077e+02    6.809047e+09    1.732918e-09    1.189886e-11    1.601013e-09    2.564188e-10   -2.700000e+00    6.630304e-01    1.612338e+00
    7.103361e-01    7.146215e+00    1.044659e+02    6.815777e+09    1.732779e-09    1.148040e-11    1.600428e-09    2.563266e-10   -2.690000e+00    6.630304e-01    1.604892e+00
    7.159989e-01    7.341583e+00    1.037236e+02    6.821809e+09    1.732648e-09    1.107709e-11    1.599835e-09    2.562356e-10   -2.680000e+00    6.630304e-01    1.597446e+00
    7.216772e-01    7.540519e+00    1.029806e+02    6.827143e+09    1.732525e-09    1.068833e-11    1.599234e-09    2.561458e-10   -2.670000e+00    6.630304e-01    1.589999e+00
    7.273703e-01    7.742870e+00    1.022372e+02    6.831787e+09    1.732408e-09    1.031356e-11    1.598627e-09    2.560570e-10   -2.660000e+00    6.630304e-01    1.582552e+00
    7.330791e-01    7.948504e+00    1.014934e+02    6.835744e+09    1.732299e-09    9.952245e-12    1.598012e-09    2.559693e-10   -2.650000e+00    6.630304e-01    1.575106e+00
    7.388047e-01    8.157293e+00    1.007492e+02    6.839027e+09    1.732196e-09    9.603870e-12    1.597391e-09    2.558826e-10   -2.640000e+00    6.630304e-01    1.567658e+00
    7.445470e-01    8.369099e+00    1.000047e+02    6.841640e+09    1.732098e-09    9.267940e-12    1.596763e-09    2.557969e-10   -2.630000e+00    6.630304e-01    1.560211e+00
    7.503078e-01    8.583796e+00    9.926000e+01    6.843596e+09    1.732007e-09    8.943975e-12    1.596129e-09    2.557123e-10   -2.620000e+00    6.630304e-01    1.552763e+00
    7.560879e-01    8.801269e+00    9.851520e+01    6.844909e+09    1.731921e-09    8.631515e-12    1.595488e-09    2.556285e-10   -2.610000e+00    6.630304e-01    1.545315e+00
    7.618888e-01    9.021399e+00    9.777030e+01    6.845591e+09    1.731840e-09    8.330120e-12    1.594842e-09    2.555456e-10   -2.600000e+00    6.630304e-01    1.537867e+00
    7.677113e-01    9.244091e+00    9.702540e+01    6.845650e+09    1.731765e-09    8.039365e-12    1.594189e-09    2.554636e-10   -2.590000e+00    6.630304e-01    1.530418e+00
    7.735572e-01    9.469251e+00    9.628060e+01    6.845108e+09    1.731693e-09    7.758840e-12    1.593531e-09    2.553826e-10   -2.580000e+00    6.630304e-01    1.522969e+00
    7.794284e-01    9.696790e+00    9.553585e+01    6.843974e+09    1.731627e-09    7.488155e-12    1.592867e-09    2.553023e-10   -2.570000e+00    6.630304e-01    1.515519e+00
    7.853253e-01    9.926639e+00    9.479135e+01    6.842263e+09    1.731565e-09    7.226935e-12    1.592197e-09    2.552228e-10   -2.560000e+00    6.630304e-01    1.508069e+00
    7.912518e-01    1.015875e+01    9.404705e+01    6.839997e+09    1.731507e-09    6.974815e-12    1.591523e-09    2.551441e-10   -2.550000e+00    6.630304e-01    1.500618e+00
    7.972076e-01    1.039305e+01    9.330305e+01    6.837179e+09    1.731452e-09    6.731455e-12    1.590843e-09    2.550661e-10   -2.540000e+00    6.630304e-01    1.493167e+00
    8.031957e-01    1.062951e+01    9.255945e+01    6.833837e+09    1.731401e-09    6.496515e-12    1.590158e-09    2.549888e-10   -2.530000e+00    6.630304e-01    1.485716e+00
    8.092178e-01    1.086810e+01    9.181620e+01    6.829973e+09    1.731354e-09    6.269680e-12    1.589468e-09    2.549123e-10   -2.520000e+00    6.630304e-01    1.478264e+00
    8.152749e-01    1.110879e+01    9.107345e+01    6.825607e+09    1.731310e-09    6.050635e-12    1.588772e-09    2.548363e-10   -2.510000e+00    6.630304e-01    1.470811e+00
    8.213691e-01    1.135157e+01    9.033125e+01    6.820749e+09    1.731268e-09    5.839095e-12    1.588072e-09    2.547611e-10   -2.500000e+00    6.630304e-01    1.463358e+00
    8.275033e-01    1.159644e+01    8.958955e+01    6.815417e+09    1.731230e-09    5.634770e-12    1.587367e-09    2.546865e-10   -2.490000e+00    6.630304e-01    1.455904e+00
    8.336782e-01    1.184340e+01    8.884855e+01    6.809625e+09    1.731194e-09    5.437390e-12    1.586657e-09    2.546123e-10   -2.480000e+00    6.630304e-01    1.448449e+00
    8.398973e-01    1.209247e+01    8.810815e+01    6.803384e+09    1.731161e-09    5.246695e-12    1.585943e-09    2.545389e-10   -2.470000e+00    6.630304e-01    1.440994e+00
    8.461602e-01    1.234364e+01    8.736850e+01    6.796697e+09    1.731130e-09    5.062435e-12    1.585223e-09    2.544659e-10   -2.460000e+00    6.630304e-01    1.433538e+00
    8.524707e-01    1.259698e+01    8.662960e+01    6.789590e+09    1.731101e-09    4.884365e-12    1.584499e-09    2.543935e-10   -2.450000e+00    6.630304e-01    1.426081e+00
    8.588290e-01    1.285245e+01    8.589155e+01    6.782058e+09    1.731075e-09    4.712258e-12    1.583772e-09    2.543215e-10   -2.440000e+00    6.630304e-01    1.418623e+00
    8.652387e-01    1.311015e+01    8.515430e+01    6.774125e+09    1.731050e-09    4.545891e-12    1.583039e-09    2.542501e-10   -2.430000e+00    6.630304e-01    1.411165e+00
    8.717009e-01    1.337009e+01    8.441800e+01    6.765799e+09    1.731026e-09    4.385052e-12    1.582302e-09    2.541791e-10   -2.420000e+00    6.630304e-01    1.403706e+00
    8.782172e-01    1.363231e+01    8.368260e+01    6.757082e+09    1.731004e-09    4.229536e-12    1.581560e-09    2.541086e-10   -2.410000e+00    6.630304e-01    1.396246e+00
    8.847901e-01    1.389685e+01    8.294815e+01    6.747986e+09    1.730984e-09    4.079146e-12    1.580814e-09    2.540383e-10   -2.400000e+00    6.630304e-01    1.388785e+00
    8.914209e-01    1.416378e+01    8.221475e+01    6.738520e+09    1.730965e-09    3.933694e-12    1.580064e-09    2.539686e-10   -2.390000e+00    6.630304e-01    1.381323e+00
    8.981117e-01    1.443314e+01    8.148240e+01    6.728692e+09    1.730947e-09    3.793000e-12    1.579310e-09    2.538992e-10   -2.380000e+00    6.630304e-01    1.373860e+00
    9.048639e-01    1.470498e+01    8.075115e+01    6.718506e+09    1.730929e-09    3.656889e-12    1.578551e-09    2.538301e-10   -2.370000e+00    6.630304e-01    1.366397e+00
    9.116801e-01    1.497936e+01    8.002105e+01    6.707976e+09    1.730914e-09    3.525193e-12    1.577788e-09    2.537614e-10   -2.360000e+00    6.630304e-01    1.358932e+00
    9.185619e-01    1.525635e+01    7.929210e+01    6.697103e+09    1.730898e-09    3.397755e-12    1.577021e-09    2.536930e-10   -2.350000e+00    6.630304e-01    1.351466e+00
    9.255114e-01    1.553600e+01    7.856435e+01    6.685895e+09    1.730884e-09    3.274419e-12    1.576250e-09    2.536249e-10   -2.340000e+00    6.630304e-01    1.343999e+00
    9.325297e-01    1.581838e+01    7.783790e+01    6.674361e+09    1.730869e-09    3.155036e-12    1.575474e-09    2.535571e-10   -2.330000e+00    6.630304e-01    1.336531e+00
    9.396195e-01    1.610354e+01    7.711265e+01    6.662496e+09    1.730855e-09    3.039466e-12    1.574695e-09    2.534895e-10   -2.320000e+00    6.630304e-01    1.329062e+00
    9.467827e-01    1.639156e+01    7.638875e+01    6.650318e+09    1.730842e-09    2.927571e-12    1.573911e-09    2.534221e-10   -2.310000e+00    6.630304e-01    1.321592e+00
    9.540204e-01    1.668251e+01    7.566620e+01    6.637823e+09    1.730829e-09    2.819221e-12    1.573124e-09    2.533550e-10   -2.300000e+00    6.630304e-01    1.314121e+00
    9.613350e-01    1.697645e+01    7.494505e+01    6.625018e+09    1.730816e-09    2.714289e-12    1.572331e-09    2.532881e-10   -2.290000e+00    6.630304e-01    1.306648e+00
    9.687296e-01    1.727346e+01    7.422525e+01    6.611909e+09    1.730803e-09    2.612654e-12    1.571535e-09    2.532213e-10   -2.280000e+00    6.630304e-01    1.299174e+00
    9.762043e-01    1.757360e+01    7.350695e+01    6.598498e+09    1.730789e-09    2.514200e-12    1.570735e-09    2.531548e-10   -2.270000e+00    6.630304e-01    1.291699e+00
    9.837622e-01    1.787695e+01    7.279010e+01    6.584789e+09    1.730775e-09    2.418815e-12    1.569931e-09    2.530883e-10   -2.260000e+00    6.630304e-01    1.284223e+00
    9.914048e-01    1.818358e+01    7.207480e+01    6.570785e+09    1.730762e-09    2.326392e-12    1.569122e-09    2.530220e-10   -2.250000e+00    6.630304e-01    1.276745e+00
    9.991347e-01    1.849358e+01    7.136105e+01    6.556494e+09    1.730748e-09    2.236826e-12    1.568309e-09    2.529558e-10   -2.240000e+00    6.630304e-01    1.269266e+00
    1.006953e+00    1.880701e+01    7.064885e+01    6.541909e+09    1.730733e-09    2.150019e-12    1.567492e-09    2.528898e-10   -2.230000e+00    6.630304e-01    1.261786e+00
    1.014863e+00    1.912394e+01    6.993825e+01    6.527039e+09    1.730718e-09    2.065875e-12    1.566671e-09    2.528238e-10   -2.220000e+00    6.630304e-01    1.254304e+00
