# GF180MCU-D pfet_03v3 gm/ID Processed Lookup Table
# Corner: ff
# Temperature: 25C
# W = 2.0 um
# L = 4 um (4000 nm)
# Columns: gm/id [1/V]  gm/gds [V/V]  id/W [A/m]  ft [Hz]  Cgg/W [F/m]  Cgd/W [F/m]  Cgs/W [F/m]  Cdb/W [F/m]  vgs [V]  vth [V]  vdsat [V]
# vdsat = BSIM saturation voltage (|VDS|_sat, positive); use for headroom / saturation / cascode-bias calculations
#           gm/id          gm/gds            id/W              ft           Cgg/W           Cgd/W           Cgs/W           Cdb/W             vgs             vth           vdsat
    5.332258e-01    2.708182e+00    1.910231e+01    1.161445e+08    1.395786e-08    4.445788e-10    1.380244e-08    2.328845e-09   -3.300000e+00    6.505290e-01    2.031751e+00
    5.375932e-01    2.770121e+00    1.900045e+01    1.165297e+08    1.395087e-08    4.296694e-10    1.380237e-08    2.328375e-09   -3.290000e+00    6.505290e-01    2.023121e+00
    5.420213e-01    2.834621e+00    1.889802e+01    1.169128e+08    1.394411e-08    4.152198e-10    1.380203e-08    2.327890e-09   -3.280000e+00    6.505290e-01    2.014501e+00
    5.464989e-01    2.901838e+00    1.879545e+01    1.172937e+08    1.393758e-08    4.012213e-10    1.380146e-08    2.327391e-09   -3.270000e+00    6.505290e-01    2.005891e+00
    5.510298e-01    2.971934e+00    1.869259e+01    1.176721e+08    1.393129e-08    3.876646e-10    1.380063e-08    2.326879e-09   -3.260000e+00    6.505290e-01    1.997290e+00
    5.556156e-01    3.045088e+00    1.858944e+01    1.180482e+08    1.392521e-08    3.745404e-10    1.379956e-08    2.326354e-09   -3.250000e+00    6.505290e-01    1.988699e+00
    5.602560e-01    3.121490e+00    1.848602e+01    1.184216e+08    1.391935e-08    3.618390e-10    1.379826e-08    2.325816e-09   -3.240000e+00    6.505290e-01    1.980118e+00
    5.649517e-01    3.201346e+00    1.838230e+01    1.187924e+08    1.391370e-08    3.495507e-10    1.379674e-08    2.325268e-09   -3.230000e+00    6.505290e-01    1.971547e+00
    5.697035e-01    3.284881e+00    1.827831e+01    1.191604e+08    1.390827e-08    3.376655e-10    1.379499e-08    2.324709e-09   -3.220000e+00    6.505290e-01    1.962985e+00
    5.745115e-01    3.372331e+00    1.817404e+01    1.195255e+08    1.390304e-08    3.261737e-10    1.379302e-08    2.324140e-09   -3.210000e+00    6.505290e-01    1.954433e+00
    5.793758e-01    3.463957e+00    1.806949e+01    1.198875e+08    1.389801e-08    3.150649e-10    1.379085e-08    2.323562e-09   -3.200000e+00    6.505290e-01    1.945891e+00
    5.842972e-01    3.560041e+00    1.796466e+01    1.202462e+08    1.389318e-08    3.043293e-10    1.378847e-08    2.322975e-09   -3.190000e+00    6.505290e-01    1.937358e+00
    5.892754e-01    3.660886e+00    1.785956e+01    1.206016e+08    1.388853e-08    2.939569e-10    1.378589e-08    2.322380e-09   -3.180000e+00    6.505290e-01    1.928834e+00
    5.943110e-01    3.766819e+00    1.775418e+01    1.209534e+08    1.388406e-08    2.839374e-10    1.378313e-08    2.321778e-09   -3.170000e+00    6.505290e-01    1.920320e+00
    5.994037e-01    3.878198e+00    1.764853e+01    1.213014e+08    1.387978e-08    2.742609e-10    1.378018e-08    2.321169e-09   -3.160000e+00    6.505290e-01    1.911816e+00
    6.045537e-01    3.995411e+00    1.754261e+01    1.216453e+08    1.387567e-08    2.649174e-10    1.377704e-08    2.320555e-09   -3.150000e+00    6.505290e-01    1.903322e+00
    6.097605e-01    4.118872e+00    1.743642e+01    1.219850e+08    1.387172e-08    2.558972e-10    1.377374e-08    2.319934e-09   -3.140000e+00    6.505290e-01    1.894836e+00
    6.150241e-01    4.249042e+00    1.732997e+01    1.223201e+08    1.386794e-08    2.471905e-10    1.377026e-08    2.319309e-09   -3.130000e+00    6.505290e-01    1.886361e+00
    6.203441e-01    4.386411e+00    1.722325e+01    1.226505e+08    1.386433e-08    2.387877e-10    1.376662e-08    2.318680e-09   -3.120000e+00    6.505290e-01    1.877894e+00
    6.257201e-01    4.531518e+00    1.711628e+01    1.229757e+08    1.386086e-08    2.306793e-10    1.376283e-08    2.318046e-09   -3.110000e+00    6.505290e-01    1.869437e+00
    6.311506e-01    4.684941e+00    1.700906e+01    1.232954e+08    1.385755e-08    2.228560e-10    1.375888e-08    2.317409e-09   -3.100000e+00    6.505290e-01    1.860990e+00
    6.366352e-01    4.847315e+00    1.690158e+01    1.236093e+08    1.385438e-08    2.153086e-10    1.375479e-08    2.316770e-09   -3.090000e+00    6.505290e-01    1.852552e+00
    6.421730e-01    5.019328e+00    1.679386e+01    1.239169e+08    1.385135e-08    2.080283e-10    1.375055e-08    2.316128e-09   -3.080000e+00    6.505290e-01    1.844123e+00
    6.477626e-01    5.201725e+00    1.668589e+01    1.242179e+08    1.384845e-08    2.010060e-10    1.374617e-08    2.315484e-09   -3.070000e+00    6.505290e-01    1.835704e+00
    6.534025e-01    5.395314e+00    1.657769e+01    1.245117e+08    1.384569e-08    1.942333e-10    1.374166e-08    2.314838e-09   -3.060000e+00    6.505290e-01    1.827294e+00
    6.590907e-01    5.600973e+00    1.646925e+01    1.247980e+08    1.384305e-08    1.877018e-10    1.373702e-08    2.314191e-09   -3.050000e+00    6.505290e-01    1.818893e+00
    6.648251e-01    5.819653e+00    1.636059e+01    1.250760e+08    1.384053e-08    1.814031e-10    1.373226e-08    2.313544e-09   -3.040000e+00    6.505290e-01    1.810502e+00
    6.706043e-01    6.052387e+00    1.625172e+01    1.253454e+08    1.383813e-08    1.753294e-10    1.372737e-08    2.312895e-09   -3.030000e+00    6.505290e-01    1.802120e+00
    6.764253e-01    6.300287e+00    1.614262e+01    1.256054e+08    1.383585e-08    1.694727e-10    1.372238e-08    2.312247e-09   -3.020000e+00    6.505290e-01    1.793747e+00
    6.822854e-01    6.564561e+00    1.603334e+01    1.258556e+08    1.383367e-08    1.638256e-10    1.371727e-08    2.311599e-09   -3.010000e+00    6.505290e-01    1.785384e+00
    6.881815e-01    6.846500e+00    1.592385e+01    1.260953e+08    1.383159e-08    1.583806e-10    1.371205e-08    2.310951e-09   -3.000000e+00    6.505290e-01    1.777030e+00
    6.941109e-01    7.147510e+00    1.581417e+01    1.263237e+08    1.382963e-08    1.531306e-10    1.370673e-08    2.310304e-09   -2.990000e+00    6.505290e-01    1.768685e+00
    7.000696e-01    7.469086e+00    1.570431e+01    1.265402e+08    1.382776e-08    1.480685e-10    1.370130e-08    2.309657e-09   -2.980000e+00    6.505290e-01    1.760349e+00
    7.060542e-01    7.812838e+00    1.559429e+01    1.267441e+08    1.382598e-08    1.431877e-10    1.369578e-08    2.309012e-09   -2.970000e+00    6.505290e-01    1.752022e+00
    7.120605e-01    8.180478e+00    1.548411e+01    1.269347e+08    1.382429e-08    1.384817e-10    1.369016e-08    2.308368e-09   -2.960000e+00    6.505290e-01    1.743705e+00
    7.180849e-01    8.573843e+00    1.537378e+01    1.271113e+08    1.382269e-08    1.339439e-10    1.368445e-08    2.307726e-09   -2.950000e+00    6.505290e-01    1.735396e+00
    7.241232e-01    8.994860e+00    1.526332e+01    1.272731e+08    1.382117e-08    1.295684e-10    1.367866e-08    2.307085e-09   -2.940000e+00    6.505290e-01    1.727097e+00
    7.301707e-01    9.445584e+00    1.515273e+01    1.274194e+08    1.381974e-08    1.253492e-10    1.367278e-08    2.306445e-09   -2.930000e+00    6.505290e-01    1.718807e+00
    7.362233e-01    9.928163e+00    1.504204e+01    1.275497e+08    1.381838e-08    1.212804e-10    1.366682e-08    2.305809e-09   -2.920000e+00    6.505290e-01    1.710526e+00
    7.422764e-01    1.044484e+01    1.493125e+01    1.276631e+08    1.381709e-08    1.173567e-10    1.366078e-08    2.305174e-09   -2.910000e+00    6.505290e-01    1.702254e+00
    7.483263e-01    1.099796e+01    1.482038e+01    1.277592e+08    1.381587e-08    1.135727e-10    1.365466e-08    2.304541e-09   -2.900000e+00    6.505290e-01    1.693991e+00
    7.543684e-01    1.158994e+01    1.470945e+01    1.278373e+08    1.381472e-08    1.099231e-10    1.364846e-08    2.303910e-09   -2.890000e+00    6.505290e-01    1.685737e+00
    7.603990e-01    1.222326e+01    1.459846e+01    1.278971e+08    1.381364e-08    1.064029e-10    1.364219e-08    2.303281e-09   -2.880000e+00    6.505290e-01    1.677492e+00
    7.664139e-01    1.290043e+01    1.448744e+01    1.279379e+08    1.381262e-08    1.030074e-10    1.363586e-08    2.302655e-09   -2.870000e+00    6.505290e-01    1.669256e+00
    7.724103e-01    1.362403e+01    1.437640e+01    1.279595e+08    1.381166e-08    9.973180e-11    1.362946e-08    2.302033e-09   -2.860000e+00    6.505290e-01    1.661029e+00
    7.783851e-01    1.439660e+01    1.426535e+01    1.279616e+08    1.381076e-08    9.657180e-11    1.362299e-08    2.301412e-09   -2.850000e+00    6.505290e-01    1.652811e+00
    7.843355e-01    1.522068e+01    1.415433e+01    1.279441e+08    1.380991e-08    9.352295e-11    1.361646e-08    2.300793e-09   -2.840000e+00    6.505290e-01    1.644602e+00
    7.902591e-01    1.609872e+01    1.404333e+01    1.279068e+08    1.380912e-08    9.058115e-11    1.360986e-08    2.300177e-09   -2.830000e+00    6.505290e-01    1.636402e+00
    7.961546e-01    1.703316e+01    1.393238e+01    1.278499e+08    1.380837e-08    8.774240e-11    1.360321e-08    2.299564e-09   -2.820000e+00    6.505290e-01    1.628211e+00
    8.020209e-01    1.802627e+01    1.382149e+01    1.277733e+08    1.380767e-08    8.500280e-11    1.359649e-08    2.298954e-09   -2.810000e+00    6.505290e-01    1.620028e+00
    8.078570e-01    1.908018e+01    1.371068e+01    1.276773e+08    1.380702e-08    8.235865e-11    1.358972e-08    2.298346e-09   -2.800000e+00    6.505290e-01    1.611855e+00
    8.136628e-01    2.019691e+01    1.359997e+01    1.275621e+08    1.380641e-08    7.980635e-11    1.358290e-08    2.297741e-09   -2.790000e+00    6.505290e-01    1.603690e+00
    8.194389e-01    2.137821e+01    1.348936e+01    1.274281e+08    1.380584e-08    7.734250e-11    1.357602e-08    2.297138e-09   -2.780000e+00    6.505290e-01    1.595535e+00
    8.251859e-01    2.262564e+01    1.337889e+01    1.272758e+08    1.380531e-08    7.496380e-11    1.356909e-08    2.296538e-09   -2.770000e+00    6.505290e-01    1.587388e+00
    8.309049e-01    2.394051e+01    1.326857e+01    1.271056e+08    1.380482e-08    7.266700e-11    1.356211e-08    2.295940e-09   -2.760000e+00    6.505290e-01    1.579249e+00
    8.365983e-01    2.532388e+01    1.315840e+01    1.269182e+08    1.380437e-08    7.044910e-11    1.355507e-08    2.295345e-09   -2.750000e+00    6.505290e-01    1.571120e+00
    8.422674e-01    2.677652e+01    1.304841e+01    1.267140e+08    1.380394e-08    6.830710e-11    1.354800e-08    2.294753e-09   -2.740000e+00    6.505290e-01    1.562999e+00
    8.479148e-01    2.829888e+01    1.293860e+01    1.264936e+08    1.380356e-08    6.623825e-11    1.354087e-08    2.294163e-09   -2.730000e+00    6.505290e-01    1.554887e+00
    8.535431e-01    2.989118e+01    1.282900e+01    1.262579e+08    1.380320e-08    6.423970e-11    1.353369e-08    2.293575e-09   -2.720000e+00    6.505290e-01    1.546784e+00
    8.591548e-01    3.155330e+01    1.271960e+01    1.260073e+08    1.380287e-08    6.230895e-11    1.352648e-08    2.292990e-09   -2.710000e+00    6.505290e-01    1.538690e+00
    8.647537e-01    3.328487e+01    1.261044e+01    1.257427e+08    1.380257e-08    6.044345e-11    1.351921e-08    2.292407e-09   -2.700000e+00    6.505290e-01    1.530604e+00
    8.703425e-01    3.508521e+01    1.250151e+01    1.254647e+08    1.380230e-08    5.864075e-11    1.351190e-08    2.291827e-09   -2.690000e+00    6.505290e-01    1.522527e+00
    8.759242e-01    3.695341e+01    1.239283e+01    1.251739e+08    1.380204e-08    5.689855e-11    1.350455e-08    2.291248e-09   -2.680000e+00    6.505290e-01    1.514458e+00
    8.815027e-01    3.888834e+01    1.228441e+01    1.248711e+08    1.380182e-08    5.521455e-11    1.349717e-08    2.290672e-09   -2.670000e+00    6.505290e-01    1.506398e+00
    8.870803e-01    4.088858e+01    1.217626e+01    1.245567e+08    1.380161e-08    5.358670e-11    1.348974e-08    2.290098e-09   -2.660000e+00    6.505290e-01    1.498347e+00
    8.926617e-01    4.295263e+01    1.206839e+01    1.242317e+08    1.380143e-08    5.201290e-11    1.348227e-08    2.289526e-09   -2.650000e+00    6.505290e-01    1.490304e+00
    8.982493e-01    4.507872e+01    1.196080e+01    1.238964e+08    1.380126e-08    5.049115e-11    1.347475e-08    2.288956e-09   -2.640000e+00    6.505290e-01    1.482270e+00
    9.038458e-01    4.726498e+01    1.185352e+01    1.235514e+08    1.380111e-08    4.901955e-11    1.346720e-08    2.288388e-09   -2.630000e+00    6.505290e-01    1.474245e+00
    9.094558e-01    4.950949e+01    1.174653e+01    1.231974e+08    1.380098e-08    4.759625e-11    1.345962e-08    2.287822e-09   -2.620000e+00    6.505290e-01    1.466228e+00
    9.150818e-01    5.181016e+01    1.163986e+01    1.228348e+08    1.380086e-08    4.621951e-11    1.345199e-08    2.287257e-09   -2.610000e+00    6.505290e-01    1.458220e+00
    9.207257e-01    5.416485e+01    1.153350e+01    1.224641e+08    1.380076e-08    4.488764e-11    1.344433e-08    2.286694e-09   -2.600000e+00    6.505290e-01    1.450220e+00
    9.263923e-01    5.657149e+01    1.142748e+01    1.220858e+08    1.380067e-08    4.359898e-11    1.343662e-08    2.286133e-09   -2.590000e+00    6.505290e-01    1.442228e+00
    9.320831e-01    5.902790e+01    1.132178e+01    1.217003e+08    1.380060e-08    4.235201e-11    1.342889e-08    2.285573e-09   -2.580000e+00    6.505290e-01    1.434245e+00
    9.378019e-01    6.153199e+01    1.121642e+01    1.213081e+08    1.380053e-08    4.114520e-11    1.342112e-08    2.285015e-09   -2.570000e+00    6.505290e-01    1.426271e+00
    9.435499e-01    6.408161e+01    1.111141e+01    1.209094e+08    1.380048e-08    3.997710e-11    1.341331e-08    2.284458e-09   -2.560000e+00    6.505290e-01    1.418305e+00
    9.493310e-01    6.667481e+01    1.100674e+01    1.205047e+08    1.380043e-08    3.884634e-11    1.340547e-08    2.283902e-09   -2.550000e+00    6.505290e-01    1.410347e+00
    9.551471e-01    6.930955e+01    1.090242e+01    1.200942e+08    1.380039e-08    3.775157e-11    1.339759e-08    2.283348e-09   -2.540000e+00    6.505290e-01    1.402398e+00
    9.610005e-01    7.198394e+01    1.079847e+01    1.196783e+08    1.380036e-08    3.669152e-11    1.338968e-08    2.282795e-09   -2.530000e+00    6.505290e-01    1.394457e+00
    9.668935e-01    7.469625e+01    1.069488e+01    1.192573e+08    1.380034e-08    3.566496e-11    1.338173e-08    2.282243e-09   -2.520000e+00    6.505290e-01    1.386525e+00
    9.728291e-01    7.744479e+01    1.059166e+01    1.188314e+08    1.380032e-08    3.467068e-11    1.337375e-08    2.281691e-09   -2.510000e+00    6.505290e-01    1.378601e+00
    9.788079e-01    8.022788e+01    1.048881e+01    1.184008e+08    1.380031e-08    3.370755e-11    1.336574e-08    2.281141e-09   -2.500000e+00    6.505290e-01    1.370685e+00
    9.848339e-01    8.304418e+01    1.038632e+01    1.179659e+08    1.380030e-08    3.277448e-11    1.335769e-08    2.280591e-09   -2.490000e+00    6.505290e-01    1.362778e+00
    9.909074e-01    8.589221e+01    1.028423e+01    1.175267e+08    1.380030e-08    3.187041e-11    1.334961e-08    2.280042e-09   -2.480000e+00    6.505290e-01    1.354879e+00
    9.970312e-01    8.877071e+01    1.018252e+01    1.170835e+08    1.380029e-08    3.099433e-11    1.334149e-08    2.279495e-09   -2.470000e+00    6.505290e-01    1.346988e+00
    1.003207e+00    9.167864e+01    1.008118e+01    1.166364e+08    1.380029e-08    3.014526e-11    1.333335e-08    2.278946e-09   -2.460000e+00    6.505290e-01    1.339105e+00
    1.009438e+00    9.461500e+01    9.980245e+00    1.161857e+08    1.380029e-08    2.932227e-11    1.332516e-08    2.278399e-09   -2.450000e+00    6.505290e-01    1.331231e+00
    1.015725e+00    9.757877e+01    9.879695e+00    1.157315e+08    1.380028e-08    2.852444e-11    1.331695e-08    2.277853e-09   -2.440000e+00    6.505290e-01    1.323365e+00
    1.022069e+00    1.005692e+02    9.779545e+00    1.152738e+08    1.380028e-08    2.775091e-11    1.330870e-08    2.277306e-09   -2.430000e+00    6.505290e-01    1.315507e+00
    1.028472e+00    1.035856e+02    9.679790e+00    1.148129e+08    1.380028e-08    2.700086e-11    1.330042e-08    2.276759e-09   -2.420000e+00    6.505290e-01    1.307658e+00
    1.034937e+00    1.066274e+02    9.580435e+00    1.143488e+08    1.380028e-08    2.627347e-11    1.329210e-08    2.276213e-09   -2.410000e+00    6.505290e-01    1.299816e+00
    1.041465e+00    1.096940e+02    9.481490e+00    1.138817e+08    1.380027e-08    2.556797e-11    1.328376e-08    2.275666e-09   -2.400000e+00    6.505290e-01    1.291983e+00
    1.048058e+00    1.127852e+02    9.382945e+00    1.134116e+08    1.380026e-08    2.488362e-11    1.327538e-08    2.275120e-09   -2.390000e+00    6.505290e-01    1.284158e+00
    1.054718e+00    1.159005e+02    9.284810e+00    1.129387e+08    1.380025e-08    2.421969e-11    1.326696e-08    2.274574e-09   -2.380000e+00    6.505290e-01    1.276341e+00
    1.061445e+00    1.190398e+02    9.187090e+00    1.124630e+08    1.380023e-08    2.357550e-11    1.325851e-08    2.274026e-09   -2.370000e+00    6.505290e-01    1.268532e+00
    1.068243e+00    1.222027e+02    9.089780e+00    1.119845e+08    1.380021e-08    2.295039e-11    1.325003e-08    2.273480e-09   -2.360000e+00    6.505290e-01    1.260732e+00
    1.075113e+00    1.253896e+02    8.992890e+00    1.115036e+08    1.380017e-08    2.234371e-11    1.324152e-08    2.272932e-09   -2.350000e+00    6.505290e-01    1.252939e+00
    1.082056e+00    1.286000e+02    8.896415e+00    1.110200e+08    1.380013e-08    2.175486e-11    1.323297e-08    2.272383e-09   -2.340000e+00    6.505290e-01    1.245155e+00
    1.089074e+00    1.318342e+02    8.800360e+00    1.105340e+08    1.380009e-08    2.118323e-11    1.322439e-08    2.271835e-09   -2.330000e+00    6.505290e-01    1.237378e+00
    1.096168e+00    1.350923e+02    8.704730e+00    1.100455e+08    1.380004e-08    2.062826e-11    1.321577e-08    2.271286e-09   -2.320000e+00    6.505290e-01    1.229610e+00
    1.103343e+00    1.383746e+02    8.609525e+00    1.095548e+08    1.379998e-08    2.008940e-11    1.320712e-08    2.270735e-09   -2.310000e+00    6.505290e-01    1.221849e+00
    1.110596e+00    1.416810e+02    8.514745e+00    1.090616e+08    1.379991e-08    1.956611e-11    1.319843e-08    2.270184e-09   -2.300000e+00    6.505290e-01    1.214097e+00
    1.117933e+00    1.450122e+02    8.420395e+00    1.085662e+08    1.379983e-08    1.905789e-11    1.318971e-08    2.269632e-09   -2.290000e+00    6.505290e-01    1.206353e+00
    1.125352e+00    1.483682e+02    8.326480e+00    1.080685e+08    1.379975e-08    1.856424e-11    1.318096e-08    2.269079e-09   -2.280000e+00    6.505290e-01    1.198616e+00
    1.132859e+00    1.517496e+02    8.232990e+00    1.075687e+08    1.379965e-08    1.808470e-11    1.317217e-08    2.268525e-09   -2.270000e+00    6.505290e-01    1.190888e+00
    1.140453e+00    1.551568e+02    8.139940e+00    1.070666e+08    1.379954e-08    1.761879e-11    1.316335e-08    2.267969e-09   -2.260000e+00    6.505290e-01    1.183167e+00
    1.148135e+00    1.585902e+02    8.047330e+00    1.065625e+08    1.379941e-08    1.716609e-11    1.315449e-08    2.267412e-09   -2.250000e+00    6.505290e-01    1.175455e+00
    1.155910e+00    1.620502e+02    7.955155e+00    1.060562e+08    1.379928e-08    1.672617e-11    1.314559e-08    2.266854e-09   -2.240000e+00    6.505290e-01    1.167750e+00
    1.163778e+00    1.655376e+02    7.863420e+00    1.055480e+08    1.379913e-08    1.629862e-11    1.313665e-08    2.266295e-09   -2.230000e+00    6.505290e-01    1.160053e+00
    1.171741e+00    1.690527e+02    7.772130e+00    1.050376e+08    1.379897e-08    1.588304e-11    1.312769e-08    2.265733e-09   -2.220000e+00    6.505290e-01    1.152364e+00
