# GF180MCU-D nfet_03v3 gm/ID Processed Lookup Table
# Corner: ss
# Temperature: 85C
# W = 2.0 um
# L = 4.5 um (4500 nm)
# Columns: gm/id [1/V]  gm/gds [V/V]  id/W [A/m]  ft [Hz]  Cgg/W [F/m]  Cgd/W [F/m]  Cgs/W [F/m]  Cdb/W [F/m]  vgs [V]  vth [V]  vdsat [V]
# vdsat = BSIM saturation voltage (|VDS|_sat, positive); use for headroom / saturation / cascode-bias calculations
#           gm/id          gm/gds            id/W              ft           Cgg/W           Cgd/W           Cgs/W           Cdb/W             vgs             vth           vdsat
    2.214272e+01    6.763455e+02    6.332450e-05    3.822265e+04    5.838510e-09    2.896379e-15    2.463374e-10    5.692735e-11    3.700000e-01    6.977630e-01    4.343988e-02
    2.213983e+01    6.747495e+02    7.902020e-05    4.767793e+04    5.840030e-09    3.224786e-15    2.765622e-10    6.315340e-11    3.800000e-01    6.977630e-01    4.345923e-02
    2.211911e+01    6.730374e+02    9.859440e-05    5.939033e+04    5.844190e-09    3.590402e-15    3.103140e-10    7.005230e-11    3.900000e-01    6.977630e-01    4.348334e-02
    2.208246e+01    6.712108e+02    1.229819e-04    7.386877e+04    5.851240e-09    3.997414e-15    3.479711e-10    7.769165e-11    4.000000e-01    6.977630e-01    4.351334e-02
    2.203135e+01    6.692753e+02    1.533343e-04    9.172638e+04    5.861465e-09    4.450452e-15    3.899442e-10    8.614425e-11    4.100000e-01    6.977630e-01    4.355062e-02
    2.196691e+01    6.672410e+02    1.910671e-04    1.136982e+05    5.875180e-09    4.954631e-15    4.366762e-10    9.548825e-11    4.200000e-01    6.977630e-01    4.359688e-02
    2.189001e+01    6.651233e+02    2.379170e-04    1.406619e+05    5.892710e-09    5.515595e-15    4.886436e-10    1.058069e-10    4.300000e-01    6.977630e-01    4.365420e-02
    2.180135e+01    6.629452e+02    2.960092e-04    1.736589e+05    5.914415e-09    6.139545e-15    5.463560e-10    1.171886e-10    4.400000e-01    6.977630e-01    4.372507e-02
    2.170152e+01    6.607388e+02    3.679387e-04    2.139197e+05    5.940665e-09    6.833295e-15    6.103545e-10    1.297265e-10    4.500000e-01    6.977630e-01    4.381253e-02
    2.159104e+01    6.585443e+02    4.568660e-04    2.628890e+05    5.971865e-09    7.604315e-15    6.812120e-10    1.435180e-10    4.600000e-01    6.977630e-01    4.392021e-02
    2.147041e+01    6.564147e+02    5.666310e-04    3.222546e+05    6.008440e-09    8.460760e-15    7.595285e-10    1.586641e-10    4.700000e-01    6.977630e-01    4.405245e-02
    2.134021e+01    6.544152e+02    7.018860e-04    3.939770e+05    6.050825e-09    9.411520e-15    8.459275e-10    1.752687e-10    4.800000e-01    6.977630e-01    4.421439e-02
    2.120100e+01    6.526236e+02    8.682560e-04    4.803213e+05    6.099475e-09    1.046626e-14    9.410505e-10    1.934369e-10    4.900000e-01    6.977630e-01    4.441209e-02
    2.105345e+01    6.511330e+02    1.072522e-03    5.838911e+05    6.154850e-09    1.163544e-14    1.045550e-09    2.132739e-10    5.000000e-01    6.977630e-01    4.465262e-02
    2.089824e+01    6.500491e+02    1.322838e-03    7.076638e+05    6.217410e-09    1.293036e-14    1.160079e-09    2.348830e-10    5.100000e-01    6.977630e-01    4.494418e-02
    2.073607e+01    6.494900e+02    1.628988e-03    8.550230e+05    6.287625e-09    1.436313e-14    1.285279e-09    2.583634e-10    5.200000e-01    6.977630e-01    4.529615e-02
    2.056759e+01    6.495833e+02    2.002676e-03    1.029798e+06    6.365930e-09    1.594678e-14    1.421768e-09    2.838074e-10    5.300000e-01    6.977630e-01    4.571916e-02
    2.039326e+01    6.504639e+02    2.457871e-03    1.236293e+06    6.452745e-09    1.769511e-14    1.570124e-09    3.112980e-10    5.400000e-01    6.977630e-01    4.622511e-02
    2.021331e+01    6.522646e+02    3.011189e-03    1.479304e+06    6.548445e-09    1.962282e-14    1.730863e-09    3.409046e-10    5.500000e-01    6.977630e-01    4.682714e-02
    2.002763e+01    6.551151e+02    3.682334e-03    1.764136e+06    6.653355e-09    2.174535e-14    1.904424e-09    3.726806e-10    5.600000e-01    6.977630e-01    4.753953e-02
    1.983555e+01    6.591285e+02    4.494571e-03    2.096571e+06    6.767730e-09    2.407890e-14    2.091142e-09    4.066591e-10    5.700000e-01    6.977630e-01    4.837753e-02
    1.963590e+01    6.643945e+02    5.475240e-03    2.482820e+06    6.891740e-09    2.664035e-14    2.291230e-09    4.428495e-10    5.800000e-01    6.977630e-01    4.935715e-02
    1.942687e+01    6.709720e+02    6.656280e-03    2.929412e+06    7.025450e-09    2.944708e-14    2.504753e-09    4.812335e-10    5.900000e-01    6.977630e-01    5.049484e-02
    1.920616e+01    6.788793e+02    8.074725e-03    3.443029e+06    7.168820e-09    3.251699e-14    2.731607e-09    5.217625e-10    6.000000e-01    6.977630e-01    5.180708e-02
    1.897101e+01    6.880877e+02    9.773155e-03    4.030286e+06    7.321660e-09    3.586822e-14    2.971505e-09    5.643545e-10    6.100000e-01    6.977630e-01    5.330995e-02
    1.871847e+01    6.985195e+02    1.180006e-02    4.697431e+06    7.483660e-09    3.951909e-14    3.223954e-09    6.088935e-10    6.200000e-01    6.977630e-01    5.501868e-02
    1.844564e+01    7.100457e+02    1.420998e-02    5.450032e+06    7.654350e-09    4.348787e-14    3.488253e-09    6.552270e-10    6.300000e-01    6.977630e-01    5.694714e-02
    1.815003e+01    7.224916e+02    1.706354e-02    6.292632e+06    7.833115e-09    4.779260e-14    3.763486e-09    7.031670e-10    6.400000e-01    6.977630e-01    5.910741e-02
    1.782980e+01    7.356426e+02    2.042718e-02    7.228440e+06    8.019185e-09    5.245095e-14    4.048527e-09    7.524935e-10    6.500000e-01    6.977630e-01    6.150936e-02
    1.748400e+01    7.492559e+02    2.437256e-02    8.259077e+06    8.211655e-09    5.747990e-14    4.342056e-09    8.029550e-10    6.600000e-01    6.977630e-01    6.416037e-02
    1.711277e+01    7.630706e+02    2.897589e-02    9.384417e+06    8.409495e-09    6.289570e-14    4.642576e-09    8.542750e-10    6.700000e-01    6.977630e-01    6.706509e-02
    1.671731e+01    7.768245e+02    3.431680e-02    1.060257e+07    8.611565e-09    6.871365e-14    4.948445e-09    9.061580e-10    6.800000e-01    6.977630e-01    7.022542e-02
    1.629983e+01    7.902638e+02    4.047720e-02    1.190995e+07    8.816650e-09    7.494785e-14    5.257910e-09    9.582950e-10    6.900000e-01    6.977630e-01    7.364052e-02
    1.586342e+01    8.031566e+02    4.753995e-02    1.330154e+07    9.023470e-09    8.161120e-14    5.569155e-09    1.010371e-09    7.000000e-01    6.977630e-01    7.730694e-02
    1.541177e+01    8.153002e+02    5.558750e-02    1.477112e+07    9.230735e-09    8.871525e-14    5.880325e-09    1.062073e-09    7.100000e-01    6.977630e-01    8.121893e-02
    1.494897e+01    8.265276e+02    6.470060e-02    1.631166e+07    9.437165e-09    9.627015e-14    6.189610e-09    1.113100e-09    7.200000e-01    6.977630e-01    8.536872e-02
    1.447927e+01    8.367115e+02    7.495710e-02    1.791573e+07    9.641510e-09    1.042846e-13    6.495245e-09    1.163165e-09    7.300000e-01    6.977630e-01    8.974687e-02
    1.400676e+01    8.457614e+02    8.643110e-02    1.957572e+07    9.842605e-09    1.127660e-13    6.795585e-09    1.212007e-09    7.400000e-01    6.977630e-01    9.434267e-02
    1.353533e+01    8.536255e+02    9.919190e-02    2.128429e+07    1.003936e-08    1.217201e-13    7.089105e-09    1.259391e-09    7.500000e-01    6.977630e-01    9.914452e-02
    1.306848e+01    8.602841e+02    1.133036e-01    2.303448e+07    1.023082e-08    1.311518e-13    7.374475e-09    1.305116e-09    7.600000e-01    6.977630e-01    1.041402e-01
    1.260923e+01    8.657452e+02    1.288246e-01    2.481995e+07    1.041614e-08    1.410646e-13    7.650530e-09    1.349013e-09    7.700000e-01    6.977630e-01    1.093173e-01
    1.216010e+01    8.700394e+02    1.458078e-01    2.663501e+07    1.059462e-08    1.514609e-13    7.916315e-09    1.390952e-09    7.800000e-01    6.977630e-01    1.146633e-01
    1.172313e+01    8.732159e+02    1.643003e-01    2.847471e+07    1.076571e-08    1.623422e-13    8.171080e-09    1.430835e-09    7.900000e-01    6.977630e-01    1.201661e-01
    1.129987e+01    8.753361e+02    1.843431e-01    3.033479e+07    1.092898e-08    1.737094e-13    8.414260e-09    1.468600e-09    8.000000e-01    6.977630e-01    1.258137e-01
    1.089145e+01    8.764701e+02    2.059726e-01    3.221166e+07    1.108415e-08    1.855626e-13    8.645500e-09    1.504216e-09    8.100000e-01    6.977630e-01    1.315949e-01
    1.049863e+01    8.766930e+02    2.292195e-01    3.410233e+07    1.123105e-08    1.979017e-13    8.864605e-09    1.537680e-09    8.200000e-01    6.977630e-01    1.374988e-01
    1.012183e+01    8.760820e+02    2.541105e-01    3.600434e+07    1.136965e-08    2.107261e-13    9.071560e-09    1.569015e-09    8.300000e-01    6.977630e-01    1.435154e-01
    9.761212e+00    8.747138e+02    2.806676e-01    3.791567e+07    1.149999e-08    2.240350e-13    9.266465e-09    1.598265e-09    8.400000e-01    6.977630e-01    1.496352e-01
    9.416706e+00    8.726630e+02    3.089092e-01    3.983469e+07    1.162221e-08    2.378279e-13    9.449555e-09    1.625492e-09    8.500000e-01    6.977630e-01    1.558495e-01
    9.088078e+00    8.700017e+02    3.388503e-01    4.176007e+07    1.173651e-08    2.521040e-13    9.621165e-09    1.650771e-09    8.600000e-01    6.977630e-01    1.621503e-01
    8.774961e+00    8.667969e+02    3.705028e-01    4.369071e+07    1.184316e-08    2.668629e-13    9.781700e-09    1.674190e-09    8.700000e-01    6.977630e-01    1.685301e-01
    8.476885e+00    8.631116e+02    4.038760e-01    4.562578e+07    1.194247e-08    2.821043e-13    9.931625e-09    1.695844e-09    8.800000e-01    6.977630e-01    1.749823e-01
    8.193309e+00    8.590040e+02    4.389770e-01    4.756451e+07    1.203478e-08    2.978285e-13    1.007147e-08    1.715831e-09    8.900000e-01    6.977630e-01    1.815005e-01
    7.923648e+00    8.545273e+02    4.758109e-01    4.950633e+07    1.212045e-08    3.140358e-13    1.020175e-08    1.734254e-09    9.000000e-01    6.977630e-01    1.880792e-01
    7.667285e+00    8.497298e+02    5.143810e-01    5.145070e+07    1.219987e-08    3.307274e-13    1.032304e-08    1.751215e-09    9.100000e-01    6.977630e-01    1.947133e-01
    7.423587e+00    8.446549e+02    5.546895e-01    5.339722e+07    1.227341e-08    3.479048e-13    1.043590e-08    1.766816e-09    9.200000e-01    6.977630e-01    2.013982e-01
    7.191929e+00    8.393420e+02    5.967370e-01    5.534550e+07    1.234145e-08    3.655699e-13    1.054087e-08    1.781157e-09    9.300000e-01    6.977630e-01    2.081297e-01
    6.971686e+00    8.338266e+02    6.405230e-01    5.729518e+07    1.240437e-08    3.837252e-13    1.063852e-08    1.794332e-09    9.400000e-01    6.977630e-01    2.149041e-01
    6.762242e+00    8.281400e+02    6.860470e-01    5.924597e+07    1.246252e-08    4.023739e-13    1.072935e-08    1.806433e-09    9.500000e-01    6.977630e-01    2.217179e-01
    6.563012e+00    8.223091e+02    7.333065e-01    6.119761e+07    1.251626e-08    4.215197e-13    1.081389e-08    1.817548e-09    9.600000e-01    6.977630e-01    2.285682e-01
    6.373419e+00    8.163585e+02    7.823000e-01    6.314978e+07    1.256592e-08    4.411667e-13    1.089261e-08    1.827758e-09    9.700000e-01    6.977630e-01    2.354520e-01
    6.192925e+00    8.103107e+02    8.330240e-01    6.510226e+07    1.261181e-08    4.613196e-13    1.096597e-08    1.837141e-09    9.800000e-01    6.977630e-01    2.423671e-01
    6.021005e+00    8.041841e+02    8.854760e-01    6.705482e+07    1.265424e-08    4.819841e-13    1.103440e-08    1.845766e-09    9.900000e-01    6.977630e-01    2.493111e-01
    5.857163e+00    7.979943e+02    9.396520e-01    6.900716e+07    1.269347e-08    5.031660e-13    1.109830e-08    1.853701e-09    1.000000e+00    6.977630e-01    2.562820e-01
    5.700938e+00    7.917565e+02    9.955485e-01    7.095908e+07    1.272978e-08    5.248715e-13    1.115803e-08    1.861009e-09    1.010000e+00    6.977630e-01    2.632781e-01
    5.551888e+00    7.854832e+02    1.053162e+00    7.291037e+07    1.276340e-08    5.471080e-13    1.121396e-08    1.867743e-09    1.020000e+00    6.977630e-01    2.702976e-01
    5.409598e+00    7.791861e+02    1.112487e+00    7.486085e+07    1.279457e-08    5.698830e-13    1.126639e-08    1.873957e-09    1.030000e+00    6.977630e-01    2.773393e-01
    5.273670e+00    7.728726e+02    1.173523e+00    7.681023e+07    1.282347e-08    5.932045e-13    1.131563e-08    1.879698e-09    1.040000e+00    6.977630e-01    2.844016e-01
    5.143746e+00    7.665523e+02    1.236262e+00    7.875834e+07    1.285031e-08    6.170810e-13    1.136195e-08    1.885010e-09    1.050000e+00    6.977630e-01    2.914836e-01
    5.019476e+00    7.602318e+02    1.300702e+00    8.070501e+07    1.287525e-08    6.415220e-13    1.140560e-08    1.889931e-09    1.060000e+00    6.977630e-01    2.985840e-01
    4.900540e+00    7.539166e+02    1.366837e+00    8.264999e+07    1.289847e-08    6.665375e-13    1.144680e-08    1.894498e-09    1.070000e+00    6.977630e-01    3.057020e-01
    4.786635e+00    7.476119e+02    1.434665e+00    8.459309e+07    1.292010e-08    6.921370e-13    1.148576e-08    1.898744e-09    1.080000e+00    6.977630e-01    3.128367e-01
    4.677472e+00    7.413215e+02    1.504180e+00    8.653411e+07    1.294029e-08    7.183310e-13    1.152268e-08    1.902698e-09    1.090000e+00    6.977630e-01    3.199873e-01
    4.572796e+00    7.350502e+02    1.575379e+00    8.847296e+07    1.295915e-08    7.451315e-13    1.155773e-08    1.906388e-09    1.100000e+00    6.977630e-01    3.271531e-01
    4.472351e+00    7.287998e+02    1.648256e+00    9.040937e+07    1.297679e-08    7.725500e-13    1.159107e-08    1.909837e-09    1.110000e+00    6.977630e-01    3.343335e-01
    4.375910e+00    7.225735e+02    1.722808e+00    9.234326e+07    1.299333e-08    8.005990e-13    1.162283e-08    1.913067e-09    1.120000e+00    6.977630e-01    3.415279e-01
    4.283252e+00    7.163733e+02    1.799032e+00    9.427447e+07    1.300883e-08    8.292900e-13    1.165316e-08    1.916099e-09    1.130000e+00    6.977630e-01    3.487358e-01
    4.194172e+00    7.102003e+02    1.876921e+00    9.620275e+07    1.302342e-08    8.586375e-13    1.168218e-08    1.918950e-09    1.140000e+00    6.977630e-01    3.559568e-01
    4.108485e+00    7.040572e+02    1.956473e+00    9.812810e+07    1.303714e-08    8.886550e-13    1.170998e-08    1.921637e-09    1.150000e+00    6.977630e-01    3.631903e-01
    4.026007e+00    6.979437e+02    2.037683e+00    1.000503e+08    1.305008e-08    9.193560e-13    1.173668e-08    1.924174e-09    1.160000e+00    6.977630e-01    3.704361e-01
    3.946573e+00    6.918614e+02    2.120546e+00    1.019692e+08    1.306229e-08    9.507560e-13    1.176235e-08    1.926575e-09    1.170000e+00    6.977630e-01    3.776937e-01
    3.870028e+00    6.858108e+02    2.205059e+00    1.038847e+08    1.307383e-08    9.828695e-13    1.178709e-08    1.928852e-09    1.180000e+00    6.977630e-01    3.849629e-01
    3.796225e+00    6.797927e+02    2.291217e+00    1.057968e+08    1.308476e-08    1.015713e-12    1.181096e-08    1.931015e-09    1.190000e+00    6.977630e-01    3.922435e-01
    3.725024e+00    6.738072e+02    2.379017e+00    1.077053e+08    1.309513e-08    1.049303e-12    1.183403e-08    1.933074e-09    1.200000e+00    6.977630e-01    3.995350e-01
    3.656297e+00    6.678543e+02    2.468454e+00    1.096101e+08    1.310497e-08    1.083655e-12    1.185637e-08    1.935038e-09    1.210000e+00    6.977630e-01    4.068374e-01
    3.589922e+00    6.619344e+02    2.559524e+00    1.115111e+08    1.311433e-08    1.118787e-12    1.187803e-08    1.936915e-09    1.220000e+00    6.977630e-01    4.141503e-01
    3.525785e+00    6.560472e+02    2.652222e+00    1.134082e+08    1.312324e-08    1.154718e-12    1.189906e-08    1.938712e-09    1.230000e+00    6.977630e-01    4.214737e-01
    3.463780e+00    6.501933e+02    2.746546e+00    1.153015e+08    1.313175e-08    1.191465e-12    1.191950e-08    1.940434e-09    1.240000e+00    6.977630e-01    4.288073e-01
    3.403807e+00    6.443721e+02    2.842490e+00    1.171907e+08    1.313986e-08    1.229047e-12    1.193939e-08    1.942090e-09    1.250000e+00    6.977630e-01    4.361509e-01
    3.345770e+00    6.385835e+02    2.940049e+00    1.190759e+08    1.314762e-08    1.267484e-12    1.195878e-08    1.943683e-09    1.260000e+00    6.977630e-01    4.435046e-01
    3.289578e+00    6.328269e+02    3.039223e+00    1.209569e+08    1.315504e-08    1.306797e-12    1.197771e-08    1.945218e-09    1.270000e+00    6.977630e-01    4.508680e-01
    3.235151e+00    6.271030e+02    3.140004e+00    1.228338e+08    1.316216e-08    1.347006e-12    1.199618e-08    1.946700e-09    1.280000e+00    6.977630e-01    4.582412e-01
    3.182406e+00    6.214104e+02    3.242389e+00    1.247063e+08    1.316898e-08    1.388132e-12    1.201426e-08    1.948132e-09    1.290000e+00    6.977630e-01    4.656239e-01
    3.131268e+00    6.157494e+02    3.346374e+00    1.265746e+08    1.317554e-08    1.430198e-12    1.203194e-08    1.949519e-09    1.300000e+00    6.977630e-01    4.730162e-01
    3.081671e+00    6.101198e+02    3.451956e+00    1.284386e+08    1.318184e-08    1.473226e-12    1.204927e-08    1.950863e-09    1.310000e+00    6.977630e-01    4.804179e-01
    3.033543e+00    6.045207e+02    3.559129e+00    1.302982e+08    1.318790e-08    1.517240e-12    1.206626e-08    1.952167e-09    1.320000e+00    6.977630e-01    4.878290e-01
    2.986825e+00    5.989522e+02    3.667890e+00    1.321534e+08    1.319374e-08    1.562263e-12    1.208293e-08    1.953435e-09    1.330000e+00    6.977630e-01    4.952494e-01
    2.941455e+00    5.934134e+02    3.778234e+00    1.340041e+08    1.319937e-08    1.608321e-12    1.209929e-08    1.954667e-09    1.340000e+00    6.977630e-01    5.026791e-01
    2.897378e+00    5.879046e+02    3.890158e+00    1.358503e+08    1.320481e-08    1.655439e-12    1.211538e-08    1.955868e-09    1.350000e+00    6.977630e-01    5.101179e-01
    2.854540e+00    5.824247e+02    4.003658e+00    1.376920e+08    1.321005e-08    1.703643e-12    1.213120e-08    1.957038e-09    1.360000e+00    6.977630e-01    5.175659e-01
    2.812890e+00    5.769737e+02    4.118728e+00    1.395292e+08    1.321512e-08    1.752960e-12    1.214676e-08    1.958179e-09    1.370000e+00    6.977630e-01    5.250230e-01
    2.772380e+00    5.715508e+02    4.235367e+00    1.413618e+08    1.322002e-08    1.803419e-12    1.216209e-08    1.959294e-09    1.380000e+00    6.977630e-01    5.324893e-01
    2.732966e+00    5.661563e+02    4.353568e+00    1.431898e+08    1.322476e-08    1.855048e-12    1.217719e-08    1.960383e-09    1.390000e+00    6.977630e-01    5.399646e-01
    2.694604e+00    5.607892e+02    4.473329e+00    1.450132e+08    1.322935e-08    1.907874e-12    1.219207e-08    1.961448e-09    1.400000e+00    6.977630e-01    5.474489e-01
    2.657253e+00    5.554492e+02    4.594644e+00    1.468319e+08    1.323380e-08    1.961931e-12    1.220674e-08    1.962490e-09    1.410000e+00    6.977630e-01    5.549423e-01
    2.620873e+00    5.501360e+02    4.717510e+00    1.486459e+08    1.323811e-08    2.017249e-12    1.222121e-08    1.963511e-09    1.420000e+00    6.977630e-01    5.624447e-01
    2.585430e+00    5.448491e+02    4.841922e+00    1.504553e+08    1.324229e-08    2.073859e-12    1.223551e-08    1.964511e-09    1.430000e+00    6.977630e-01    5.699561e-01
    2.550885e+00    5.395881e+02    4.967878e+00    1.522600e+08    1.324635e-08    2.131795e-12    1.224961e-08    1.965492e-09    1.440000e+00    6.977630e-01    5.774765e-01
    2.517208e+00    5.343527e+02    5.095370e+00    1.540599e+08    1.325028e-08    2.191090e-12    1.226355e-08    1.966455e-09    1.450000e+00    6.977630e-01    5.850059e-01
