# GF180MCU-D nfet_03v3 gm/ID Processed Lookup Table
# Corner: ss
# Temperature: 85C
# W = 2.0 um
# L = 1.5 um (1500 nm)
# Columns: gm/id [1/V]  gm/gds [V/V]  id/W [A/m]  ft [Hz]  Cgg/W [F/m]  Cgd/W [F/m]  Cgs/W [F/m]  Cdb/W [F/m]  vgs [V]  vth [V]  vdsat [V]
# vdsat = BSIM saturation voltage (|VDS|_sat, positive); use for headroom / saturation / cascode-bias calculations
#           gm/id          gm/gds            id/W              ft           Cgg/W           Cgd/W           Cgs/W           Cdb/W             vgs             vth           vdsat
    2.243143e+01    3.924493e+02    1.039039e-04    1.929204e+05    1.922786e-09    5.971375e-16    4.523311e-11    1.122276e-11    3.600000e-01    7.158543e-01    4.928558e-02
    2.242417e+01    3.917574e+02    1.300295e-04    2.416822e+05    1.920143e-09    6.657880e-16    5.106075e-11    1.246576e-11    3.700000e-01    7.158543e-01    4.929578e-02
    2.240509e+01    3.910060e+02    1.627025e-04    3.024812e+05    1.918063e-09    7.423045e-16    5.759520e-11    1.384715e-11    3.800000e-01    7.158543e-01    4.930853e-02
    2.237528e+01    3.901920e+02    2.035356e-04    3.781793e+05    1.916599e-09    8.275980e-16    6.491925e-11    1.538213e-11    3.900000e-01    7.158543e-01    4.932445e-02
    2.233551e+01    3.893130e+02    2.545276e-04    4.722775e+05    1.915816e-09    9.226810e-16    7.312445e-11    1.708739e-11    4.000000e-01    7.158543e-01    4.934433e-02
    2.228632e+01    3.883677e+02    3.181531e-04    5.890447e+05    1.915783e-09    1.028683e-15    8.231160e-11    1.898118e-11    4.100000e-01    7.158543e-01    4.936910e-02
    2.222801e+01    3.873559e+02    3.974695e-04    7.336657e+05    1.916577e-09    1.146859e-15    9.259130e-11    2.108336e-11    4.200000e-01    7.158543e-01    4.939996e-02
    2.216079e+01    3.862794e+02    4.962482e-04    9.124137e+05    1.918282e-09    1.278604e-15    1.040844e-10    2.341553e-11    4.300000e-01    7.158543e-01    4.943833e-02
    2.208474e+01    3.851425e+02    6.191315e-04    1.132845e+06    1.920990e-09    1.425467e-15    1.169226e-10    2.600104e-11    4.400000e-01    7.158543e-01    4.948600e-02
    2.199989e+01    3.839516e+02    7.718225e-04    1.404018e+06    1.924799e-09    1.589160e-15    1.312488e-10    2.886503e-11    4.500000e-01    7.158543e-01    4.954511e-02
    2.190622e+01    3.827173e+02    9.613120e-04    1.736742e+06    1.929819e-09    1.771578e-15    1.472170e-10    3.203445e-11    4.600000e-01    7.158543e-01    4.961830e-02
    2.180374e+01    3.814542e+02    1.196149e-03    2.143848e+06    1.936166e-09    1.974814e-15    1.649933e-10    3.553806e-11    4.700000e-01    7.158543e-01    4.970872e-02
    2.169247e+01    3.801821e+02    1.486764e-03    2.640482e+06    1.943963e-09    2.201172e-15    1.847545e-10    3.940629e-11    4.800000e-01    7.158543e-01    4.982022e-02
    2.157253e+01    3.789265e+02    1.845851e-03    3.244435e+06    1.953344e-09    2.453183e-15    2.066891e-10    4.367122e-11    4.900000e-01    7.158543e-01    4.995737e-02
    2.144410e+01    3.777199e+02    2.288821e-03    3.976480e+06    1.964451e-09    2.733622e-15    2.309956e-10    4.836631e-11    5.000000e-01    7.158543e-01    5.012563e-02
    2.130748e+01    3.766017e+02    2.834336e-03    4.860745e+06    1.977428e-09    3.045526e-15    2.578817e-10    5.352620e-11    5.100000e-01    7.158543e-01    5.033146e-02
    2.116302e+01    3.756186e+02    3.504937e-03    5.925088e+06    1.992431e-09    3.392202e-15    2.875629e-10    5.918630e-11    5.200000e-01    7.158543e-01    5.058245e-02
    2.101124e+01    3.748261e+02    4.327785e-03    7.201527e+06    2.009616e-09    3.777250e-15    3.202602e-10    6.538235e-11    5.300000e-01    7.158543e-01    5.088743e-02
    2.085266e+01    3.742859e+02    5.335525e-03    8.726624e+06    2.029143e-09    4.204565e-15    3.561968e-10    7.214995e-11    5.400000e-01    7.158543e-01    5.125658e-02
    2.068782e+01    3.740665e+02    6.567285e-03    1.054190e+07    2.051172e-09    4.678353e-15    3.955954e-10    7.952370e-11    5.500000e-01    7.158543e-01    5.170154e-02
    2.051716e+01    3.742404e+02    8.069855e-03    1.269419e+07    2.075860e-09    5.203135e-15    4.386729e-10    8.753640e-11    5.600000e-01    7.158543e-01    5.223542e-02
    2.034094e+01    3.748824e+02    9.899025e-03    1.523599e+07    2.103357e-09    5.783740e-15    4.856359e-10    9.621830e-11    5.700000e-01    7.158543e-01    5.287283e-02
    2.015912e+01    3.760650e+02    1.212109e-02    1.822550e+07    2.133801e-09    6.425325e-15    5.366740e-10    1.055958e-10    5.800000e-01    7.158543e-01    5.362982e-02
    1.997123e+01    3.778548e+02    1.481455e-02    2.172655e+07    2.167317e-09    7.133330e-15    5.919545e-10    1.156902e-10    5.900000e-01    7.158543e-01    5.452369e-02
    1.977626e+01    3.803068e+02    1.807191e-02    2.580808e+07    2.204006e-09    7.913505e-15    6.516120e-10    1.265168e-10    6.000000e-01    7.158543e-01    5.557281e-02
    1.957264e+01    3.834597e+02    2.200163e-02    3.054304e+07    2.243944e-09    8.771845e-15    7.157440e-10    1.380833e-10    6.100000e-01    7.158543e-01    5.679627e-02
    1.935814e+01    3.873307e+02    2.672997e-02    3.600668e+07    2.287173e-09    9.714590e-15    7.844015e-10    1.503886e-10    6.200000e-01    7.158543e-01    5.821347e-02
    1.913009e+01    3.919113e+02    3.240277e-02    4.227408e+07    2.333701e-09    1.074817e-14    8.575800e-10    1.634216e-10    6.300000e-01    7.158543e-01    5.984359e-02
    1.888542e+01    3.971628e+02    3.918685e-02    4.941672e+07    2.383489e-09    1.187916e-14    9.352150e-10    1.771606e-10    6.400000e-01    7.158543e-01    6.170507e-02
    1.862095e+01    4.030168e+02    4.727092e-02    5.749872e+07    2.436452e-09    1.311423e-14    1.017173e-09    1.915716e-10    6.500000e-01    7.158543e-01    6.381499e-02
    1.833379e+01    4.093761e+02    5.686575e-02    6.657263e+07    2.492455e-09    1.446008e-14    1.103250e-09    2.066089e-10    6.600000e-01    7.158543e-01    6.618848e-02
    1.802149e+01    4.161167e+02    6.820345e-02    7.667504e+07    2.551310e-09    1.592336e-14    1.193168e-09    2.222143e-10    6.700000e-01    7.158543e-01    6.883819e-02
    1.768250e+01    4.230948e+02    8.153575e-02    8.782326e+07    2.612776e-09    1.751064e-14    1.286574e-09    2.383178e-10    6.800000e-01    7.158543e-01    7.177381e-02
    1.731627e+01    4.301537e+02    9.713105e-02    1.000127e+08    2.676563e-09    1.922830e-14    1.383046e-09    2.548388e-10    6.900000e-01    7.158543e-01    7.500179e-02
    1.692342e+01    4.371318e+02    1.152709e-01    1.132160e+08    2.742332e-09    2.108244e-14    1.482098e-09    2.716869e-10    7.000000e-01    7.158543e-01    7.852510e-02
    1.650572e+01    4.438715e+02    1.362447e-01    1.273836e+08    2.809705e-09    2.307890e-14    1.583186e-09    2.887641e-10    7.100000e-01    7.158543e-01    8.234325e-02
    1.606596e+01    4.502269e+02    1.603455e-01    1.424464e+08    2.878274e-09    2.522309e-14    1.685727e-09    3.059671e-10    7.200000e-01    7.158543e-01    8.645238e-02
    1.560777e+01    4.560705e+02    1.878635e-01    1.583193e+08    2.947606e-09    2.752002e-14    1.789104e-09    3.231894e-10    7.300000e-01    7.158543e-01    9.084553e-02
    1.513534e+01    4.612974e+02    2.190814e-01    1.749064e+08    3.017255e-09    2.997425e-14    1.892689e-09    3.403247e-10    7.400000e-01    7.158543e-01    9.551306e-02
    1.465315e+01    4.658283e+02    2.542693e-01    1.921054e+08    3.086778e-09    3.258981e-14    1.995854e-09    3.572688e-10    7.500000e-01    7.158543e-01    1.004430e-01
    1.416575e+01    4.696099e+02    2.936805e-01    2.098136e+08    3.155739e-09    3.537023e-14    2.097988e-09    3.739228e-10    7.600000e-01    7.158543e-01    1.056217e-01
    1.367747e+01    4.726144e+02    3.375484e-01    2.279314e+08    3.223725e-09    3.831854e-14    2.198513e-09    3.901948e-10    7.700000e-01    7.158543e-01    1.110341e-01
    1.319233e+01    4.748362e+02    3.860841e-01    2.463663e+08    3.290352e-09    4.143728e-14    2.296895e-09    4.060023e-10    7.800000e-01    7.158543e-01    1.166645e-01
    1.271387e+01    4.762894e+02    4.394747e-01    2.650354e+08    3.355274e-09    4.472851e-14    2.392655e-09    4.212735e-10    7.900000e-01    7.158543e-01    1.224966e-01
    1.224509e+01    4.770041e+02    4.978839e-01    2.838665e+08    3.418190e-09    4.819387e-14    2.485379e-09    4.359481e-10    8.000000e-01    7.158543e-01    1.285142e-01
    1.178846e+01    4.770214e+02    5.614510e-01    3.027990e+08    3.478843e-09    5.183460e-14    2.574720e-09    4.499782e-10    8.100000e-01    7.158543e-01    1.347016e-01
    1.134591e+01    4.763911e+02    6.302930e-01    3.217831e+08    3.537029e-09    5.565160e-14    2.660400e-09    4.633279e-10    8.200000e-01    7.158543e-01    1.410433e-01
    1.091887e+01    4.751693e+02    7.045050e-01    3.407800e+08    3.592590e-09    5.964545e-14    2.742213e-09    4.759732e-10    8.300000e-01    7.158543e-01    1.475247e-01
    1.050831e+01    4.734129e+02    7.841635e-01    3.597595e+08    3.645417e-09    6.381655e-14    2.820018e-09    4.879011e-10    8.400000e-01    7.158543e-01    1.541322e-01
    1.011482e+01    4.711797e+02    8.693270e-01    3.786996e+08    3.695444e-09    6.816520e-14    2.893738e-09    4.991087e-10    8.500000e-01    7.158543e-01    1.608528e-01
    9.738687e+00    4.685266e+02    9.600375e-01    3.975850e+08    3.742646e-09    7.269140e-14    2.963352e-09    5.096020e-10    8.600000e-01    7.158543e-01    1.676748e-01
    9.379888e+00    4.655069e+02    1.056325e+00    4.164051e+08    3.787035e-09    7.739520e-14    3.028889e-09    5.193945e-10    8.700000e-01    7.158543e-01    1.745873e-01
    9.038220e+00    4.621716e+02    1.158207e+00    4.351543e+08    3.828651e-09    8.227665e-14    3.090421e-09    5.285065e-10    8.800000e-01    7.158543e-01    1.815804e-01
    8.713298e+00    4.585669e+02    1.265689e+00    4.538290e+08    3.867563e-09    8.733580e-14    3.148056e-09    5.369630e-10    8.900000e-01    7.158543e-01    1.886451e-01
    8.404616e+00    4.547350e+02    1.378772e+00    4.724287e+08    3.903858e-09    9.257270e-14    3.201928e-09    5.447925e-10    9.000000e-01    7.158543e-01    1.957732e-01
    8.111581e+00    4.507144e+02    1.497446e+00    4.909539e+08    3.937641e-09    9.798765e-14    3.252197e-09    5.520270e-10    9.100000e-01    7.158543e-01    2.029575e-01
    7.833538e+00    4.465388e+02    1.621699e+00    5.094062e+08    3.969028e-09    1.035808e-13    3.299034e-09    5.587005e-10    9.200000e-01    7.158543e-01    2.101914e-01
    7.569794e+00    4.422384e+02    1.751512e+00    5.277874e+08    3.998143e-09    1.093529e-13    3.342624e-09    5.648465e-10    9.300000e-01    7.158543e-01    2.174690e-01
    7.319646e+00    4.378397e+02    1.886863e+00    5.461002e+08    4.025114e-09    1.153044e-13    3.383157e-09    5.705010e-10    9.400000e-01    7.158543e-01    2.247851e-01
    7.082383e+00    4.333657e+02    2.027726e+00    5.643465e+08    4.050075e-09    1.214362e-13    3.420824e-09    5.756975e-10    9.500000e-01    7.158543e-01    2.321351e-01
    6.857302e+00    4.288366e+02    2.174076e+00    5.825285e+08    4.073155e-09    1.277492e-13    3.455815e-09    5.804700e-10    9.600000e-01    7.158543e-01    2.395147e-01
    6.643715e+00    4.242693e+02    2.325883e+00    6.006478e+08    4.094483e-09    1.342448e-13    3.488318e-09    5.848510e-10    9.700000e-01    7.158543e-01    2.469204e-01
    6.440963e+00    4.196789e+02    2.483115e+00    6.187058e+08    4.114184e-09    1.409244e-13    3.518512e-09    5.888715e-10    9.800000e-01    7.158543e-01    2.543488e-01
    6.248409e+00    4.150779e+02    2.645745e+00    6.367039e+08    4.132377e-09    1.477896e-13    3.546570e-09    5.925615e-10    9.900000e-01    7.158543e-01    2.617970e-01
    6.065443e+00    4.104769e+02    2.813739e+00    6.546424e+08    4.149180e-09    1.548423e-13    3.572660e-09    5.959480e-10    1.000000e+00    7.158543e-01    2.692625e-01
    5.891489e+00    4.058849e+02    2.987065e+00    6.725216e+08    4.164699e-09    1.620847e-13    3.596936e-09    5.990575e-10    1.010000e+00    7.158543e-01    2.767430e-01
    5.726001e+00    4.013092e+02    3.165693e+00    6.903415e+08    4.179038e-09    1.695189e-13    3.619544e-09    6.019145e-10    1.020000e+00    7.158543e-01    2.842364e-01
    5.568467e+00    3.967563e+02    3.349589e+00    7.081019e+08    4.192292e-09    1.771477e-13    3.640622e-09    6.045410e-10    1.030000e+00    7.158543e-01    2.917410e-01
    5.418402e+00    3.922312e+02    3.538722e+00    7.258021e+08    4.204551e-09    1.849735e-13    3.660298e-09    6.069575e-10    1.040000e+00    7.158543e-01    2.992552e-01
    5.275352e+00    3.877380e+02    3.733062e+00    7.434413e+08    4.215898e-09    1.929996e-13    3.678689e-09    6.091835e-10    1.050000e+00    7.158543e-01    3.067776e-01
    5.138892e+00    3.832803e+02    3.932576e+00    7.610184e+08    4.226410e-09    2.012290e-13    3.695905e-09    6.112365e-10    1.060000e+00    7.158543e-01    3.143069e-01
    5.008627e+00    3.788609e+02    4.137233e+00    7.785324e+08    4.236157e-09    2.096650e-13    3.712046e-09    6.131320e-10    1.070000e+00    7.158543e-01    3.218420e-01
    4.884182e+00    3.744812e+02    4.347002e+00    7.959819e+08    4.245205e-09    2.183114e-13    3.727205e-09    6.148850e-10    1.080000e+00    7.158543e-01    3.293820e-01
    4.765214e+00    3.701434e+02    4.561853e+00    8.133657e+08    4.253614e-09    2.271718e-13    3.741466e-09    6.165090e-10    1.090000e+00    7.158543e-01    3.369259e-01
    4.651398e+00    3.658485e+02    4.781756e+00    8.306821e+08    4.261438e-09    2.362504e-13    3.754907e-09    6.180155e-10    1.100000e+00    7.158543e-01    3.444731e-01
    4.542433e+00    3.615978e+02    5.006680e+00    8.479301e+08    4.268728e-09    2.455513e-13    3.767599e-09    6.194155e-10    1.110000e+00    7.158543e-01    3.520227e-01
    4.438038e+00    3.573910e+02    5.236595e+00    8.651077e+08    4.275530e-09    2.550788e-13    3.779606e-09    6.207195e-10    1.120000e+00    7.158543e-01    3.595742e-01
    4.337947e+00    3.532289e+02    5.471475e+00    8.822140e+08    4.281884e-09    2.648377e-13    3.790987e-09    6.219360e-10    1.130000e+00    7.158543e-01    3.671271e-01
    4.241923e+00    3.491119e+02    5.711285e+00    8.992475e+08    4.287830e-09    2.748328e-13    3.801797e-09    6.230730e-10    1.140000e+00    7.158543e-01    3.746808e-01
    4.149731e+00    3.450393e+02    5.956000e+00    9.162064e+08    4.293401e-09    2.850690e-13    3.812081e-09    6.241380e-10    1.150000e+00    7.158543e-01    3.822350e-01
    4.061163e+00    3.410113e+02    6.205590e+00    9.330899e+08    4.298631e-09    2.955516e-13    3.821887e-09    6.251375e-10    1.160000e+00    7.158543e-01    3.897891e-01
    3.976015e+00    3.370276e+02    6.460030e+00    9.498963e+08    4.303546e-09    3.062860e-13    3.831254e-09    6.260780e-10    1.170000e+00    7.158543e-01    3.973430e-01
    3.894108e+00    3.330877e+02    6.719285e+00    9.666249e+08    4.308174e-09    3.172779e-13    3.840217e-09    6.269645e-10    1.180000e+00    7.158543e-01    4.048962e-01
    3.815266e+00    3.291913e+02    6.983330e+00    9.832744e+08    4.312537e-09    3.285332e-13    3.848811e-09    6.278015e-10    1.190000e+00    7.158543e-01    4.124486e-01
    3.739326e+00    3.253379e+02    7.252140e+00    9.998436e+08    4.316657e-09    3.400578e-13    3.857065e-09    6.285940e-10    1.200000e+00    7.158543e-01    4.199998e-01
    3.666138e+00    3.215266e+02    7.525685e+00    1.016332e+09    4.320554e-09    3.518580e-13    3.865006e-09    6.293455e-10    1.210000e+00    7.158543e-01    4.275496e-01
    3.595562e+00    3.177572e+02    7.803935e+00    1.032738e+09    4.324246e-09    3.639404e-13    3.872659e-09    6.300600e-10    1.220000e+00    7.158543e-01    4.350979e-01
    3.527464e+00    3.140290e+02    8.086865e+00    1.049062e+09    4.327747e-09    3.763116e-13    3.880048e-09    6.307400e-10    1.230000e+00    7.158543e-01    4.426445e-01
    3.461722e+00    3.103414e+02    8.374445e+00    1.065302e+09    4.331075e-09    3.889787e-13    3.887190e-09    6.313890e-10    1.240000e+00    7.158543e-01    4.501892e-01
    3.398215e+00    3.066938e+02    8.666655e+00    1.081458e+09    4.334240e-09    4.019486e-13    3.894107e-09    6.320100e-10    1.250000e+00    7.158543e-01    4.577319e-01
    3.336840e+00    3.030854e+02    8.963460e+00    1.097529e+09    4.337255e-09    4.152289e-13    3.900814e-09    6.326040e-10    1.260000e+00    7.158543e-01    4.652724e-01
    3.277490e+00    2.995158e+02    9.264840e+00    1.113516e+09    4.340133e-09    4.288272e-13    3.907326e-09    6.331745e-10    1.270000e+00    7.158543e-01    4.728108e-01
    3.220072e+00    2.959842e+02    9.570760e+00    1.129417e+09    4.342881e-09    4.427514e-13    3.913658e-09    6.337225e-10    1.280000e+00    7.158543e-01    4.803468e-01
    3.164495e+00    2.924900e+02    9.881200e+00    1.145232e+09    4.345510e-09    4.570095e-13    3.919822e-09    6.342500e-10    1.290000e+00    7.158543e-01    4.878805e-01
    3.110673e+00    2.890327e+02    1.019613e+01    1.160961e+09    4.348028e-09    4.716101e-13    3.925828e-09    6.347590e-10    1.300000e+00    7.158543e-01    4.954116e-01
    3.058526e+00    2.856115e+02    1.051553e+01    1.176603e+09    4.350442e-09    4.865617e-13    3.931690e-09    6.352505e-10    1.310000e+00    7.158543e-01    5.029403e-01
    3.007980e+00    2.822258e+02    1.083936e+01    1.192159e+09    4.352759e-09    5.018730e-13    3.937414e-09    6.357255e-10    1.320000e+00    7.158543e-01    5.104664e-01
    2.958964e+00    2.788754e+02    1.116761e+01    1.207629e+09    4.354986e-09    5.175540e-13    3.943010e-09    6.361860e-10    1.330000e+00    7.158543e-01    5.179899e-01
    2.911410e+00    2.755592e+02    1.150025e+01    1.223011e+09    4.357127e-09    5.336130e-13    3.948487e-09    6.366320e-10    1.340000e+00    7.158543e-01    5.255108e-01
    2.865255e+00    2.722769e+02    1.183724e+01    1.238307e+09    4.359189e-09    5.500610e-13    3.953851e-09    6.370650e-10    1.350000e+00    7.158543e-01    5.330291e-01
    2.820440e+00    2.690278e+02    1.217857e+01    1.253516e+09    4.361176e-09    5.669070e-13    3.959108e-09    6.374865e-10    1.360000e+00    7.158543e-01    5.405446e-01
    2.776908e+00    2.658115e+02    1.252421e+01    1.268638e+09    4.363093e-09    5.841620e-13    3.964266e-09    6.378960e-10    1.370000e+00    7.158543e-01    5.480575e-01
    2.734606e+00    2.626274e+02    1.287414e+01    1.283673e+09    4.364943e-09    6.018365e-13    3.969330e-09    6.382950e-10    1.380000e+00    7.158543e-01    5.555677e-01
    2.693484e+00    2.594749e+02    1.322832e+01    1.298622e+09    4.366730e-09    6.199420e-13    3.974304e-09    6.386840e-10    1.390000e+00    7.158543e-01    5.630752e-01
    2.653492e+00    2.563535e+02    1.358673e+01    1.313484e+09    4.368459e-09    6.384890e-13    3.979194e-09    6.390640e-10    1.400000e+00    7.158543e-01    5.705801e-01
    2.614586e+00    2.532628e+02    1.394936e+01    1.328259e+09    4.370130e-09    6.574900e-13    3.984003e-09    6.394350e-10    1.410000e+00    7.158543e-01    5.780822e-01
    2.576724e+00    2.502023e+02    1.431616e+01    1.342949e+09    4.371750e-09    6.769570e-13    3.988737e-09    6.397975e-10    1.420000e+00    7.158543e-01    5.855818e-01
    2.539865e+00    2.471714e+02    1.468712e+01    1.357552e+09    4.373318e-09    6.969020e-13    3.993398e-09    6.401520e-10    1.430000e+00    7.158543e-01    5.930786e-01
    2.503969e+00    2.441696e+02    1.506222e+01    1.372069e+09    4.374838e-09    7.173385e-13    3.997989e-09    6.404995e-10    1.440000e+00    7.158543e-01    6.005729e-01
