# GF180MCU-D nfet_03v3 gm/ID Processed Lookup Table
# Corner: ss
# Temperature: 85C
# W = 2.0 um
# L = 0.5 um (500 nm)
# Columns: gm/id [1/V]  gm/gds [V/V]  id/W [A/m]  ft [Hz]  Cgg/W [F/m]  Cgd/W [F/m]  Cgs/W [F/m]  Cdb/W [F/m]  vgs [V]  vth [V]  vdsat [V]
# vdsat = BSIM saturation voltage (|VDS|_sat, positive); use for headroom / saturation / cascode-bias calculations
#           gm/id          gm/gds            id/W              ft           Cgg/W           Cgd/W           Cgs/W           Cdb/W             vgs             vth           vdsat
    2.262572e+01    1.690198e+02    1.591468e-04    8.759395e+05    6.542540e-10    8.011160e-15    7.212960e-12    2.075240e-12    3.500000e-01    7.476718e-01    5.856775e-02
    2.262105e+01    1.688500e+02    1.995512e-04    1.100826e+06    6.526320e-10    8.913625e-15    8.270935e-12    2.304836e-12    3.600000e-01    7.476718e-01    5.857220e-02
    2.260855e+01    1.686645e+02    2.501918e-04    1.382608e+06    6.511290e-10    9.919355e-15    9.459675e-12    2.559886e-12    3.700000e-01    7.476718e-01    5.857778e-02
    2.258889e+01    1.684619e+02    3.136331e-04    1.735348e+06    6.497560e-10    1.104093e-14    1.079486e-11    2.843275e-12    3.800000e-01    7.476718e-01    5.858477e-02
    2.256256e+01    1.682410e+02    3.930707e-04    2.176470e+06    6.485245e-10    1.229250e-14    1.229407e-11    3.158212e-12    3.900000e-01    7.476718e-01    5.859351e-02
    2.252979e+01    1.680001e+02    4.924828e-04    2.727488e+06    6.474490e-10    1.368991e-14    1.397702e-11    3.508253e-12    4.000000e-01    7.476718e-01    5.860445e-02
    2.249071e+01    1.677378e+02    6.168160e-04    3.414917e+06    6.465450e-10    1.525088e-14    1.586568e-11    3.897331e-12    4.100000e-01    7.476718e-01    5.861813e-02
    2.244531e+01    1.674526e+02    7.722120e-04    4.271350e+06    6.458285e-10    1.699513e-14    1.798451e-11    4.329788e-12    4.200000e-01    7.476718e-01    5.863522e-02
    2.239348e+01    1.671432e+02    9.662875e-04    5.336702e+06    6.453200e-10    1.894457e-14    2.036063e-11    4.810397e-12    4.300000e-01    7.476718e-01    5.865655e-02
    2.233501e+01    1.668086e+02    1.208473e-03    6.659720e+06    6.450405e-10    2.112345e-14    2.302404e-11    5.344395e-12    4.400000e-01    7.476718e-01    5.868315e-02
    2.226963e+01    1.664479e+02    1.510422e-03    8.299712e+06    6.450130e-10    2.355854e-14    2.600776e-11    5.937510e-12    4.500000e-01    7.476718e-01    5.871629e-02
    2.219706e+01    1.660607e+02    1.886516e-03    1.032854e+07    6.452635e-10    2.627921e-14    2.934803e-11    6.595975e-12    4.600000e-01    7.476718e-01    5.875752e-02
    2.211693e+01    1.656474e+02    2.354459e-03    1.283288e+07    6.458205e-10    2.931768e-14    3.308450e-11    7.326570e-12    4.700000e-01    7.476718e-01    5.880874e-02
    2.202892e+01    1.652086e+02    2.936005e-03    1.591685e+07    6.467150e-10    3.270906e-14    3.726037e-11    8.136615e-12    4.800000e-01    7.476718e-01    5.887230e-02
    2.193268e+01    1.647464e+02    3.657821e-03    1.970481e+07    6.479805e-10    3.649149e-14    4.192247e-11    9.033990e-12    4.900000e-01    7.476718e-01    5.895103e-02
    2.182793e+01    1.642637e+02    4.552518e-03    2.434460e+07    6.496535e-10    4.070627e-14    4.712142e-11    1.002715e-11    5.000000e-01    7.476718e-01    5.904837e-02
    2.171439e+01    1.637650e+02    5.659880e-03    3.001083e+07    6.517740e-10    4.539776e-14    5.291160e-11    1.112509e-11    5.100000e-01    7.476718e-01    5.916847e-02
    2.159192e+01    1.632563e+02    7.028295e-03    3.690872e+07    6.543835e-10    5.061355e-14    5.935105e-11    1.233735e-11    5.200000e-01    7.476718e-01    5.931632e-02
    2.146038e+01    1.627458e+02    8.716485e-03    4.527781e+07    6.575270e-10    5.640410e-14    6.650160e-11    1.367394e-11    5.300000e-01    7.476718e-01    5.949787e-02
    2.131982e+01    1.622436e+02    1.079548e-02    5.539602e+07    6.612520e-10    6.282285e-14    7.442830e-11    1.514531e-11    5.400000e-01    7.476718e-01    5.972017e-02
    2.117035e+01    1.617621e+02    1.335096e-02    6.758368e+07    6.656085e-10    6.992575e-14    8.319920e-11    1.676228e-11    5.500000e-01    7.476718e-01    5.999154e-02
    2.101219e+01    1.613162e+02    1.648599e-02    8.220759e+07    6.706480e-10    7.777080e-14    9.288495e-11    1.853585e-11    5.600000e-01    7.476718e-01    6.032167e-02
    2.084566e+01    1.609232e+02    2.032415e-02    9.968485e+07    6.764240e-10    8.641755e-14    1.035577e-10    2.047714e-11    5.700000e-01    7.476718e-01    6.072178e-02
    2.067111e+01    1.606021e+02    2.501318e-02    1.204865e+08    6.829900e-10    9.592615e-14    1.152904e-10    2.259716e-11    5.800000e-01    7.476718e-01    6.120474e-02
    2.048886e+01    1.603738e+02    3.072914e-02    1.451401e+08    6.904000e-10    1.063566e-13    1.281556e-10    2.490659e-11    5.900000e-01    7.476718e-01    6.178509e-02
    2.029919e+01    1.602599e+02    3.768116e-02    1.742320e+08    6.987070e-10    1.177674e-13    1.422241e-10    2.741552e-11    6.000000e-01    7.476718e-01    6.247910e-02
    2.010211e+01    1.602812e+02    4.611671e-02    2.084064e+08    7.079605e-10    1.302140e-13    1.575625e-10    3.013313e-11    6.100000e-01    7.476718e-01    6.330468e-02
    1.989739e+01    1.604571e+02    5.632745e-02    2.483628e+08    7.182075e-10    1.437473e-13    1.742323e-10    3.306739e-11    6.200000e-01    7.476718e-01    6.428126e-02
    1.968438e+01    1.608037e+02    6.865545e-02    2.948480e+08    7.294890e-10    1.584118e-13    1.922866e-10    3.622464e-11    6.300000e-01    7.476718e-01    6.542954e-02
    1.946194e+01    1.613319e+02    8.349970e-02    3.486440e+08    7.418380e-10    1.742432e-13    2.117683e-10    3.960921e-11    6.400000e-01    7.476718e-01    6.677108e-02
    1.922845e+01    1.620457e+02    1.013224e-01    4.105461e+08    7.552795e-10    1.912668e-13    2.327072e-10    4.322304e-11    6.500000e-01    7.476718e-01    6.832789e-02
    1.898175e+01    1.629410e+02    1.226546e-01    4.813351e+08    7.698260e-10    2.094948e-13    2.551178e-10    4.706524e-11    6.600000e-01    7.476718e-01    7.012180e-02
    1.871938e+01    1.640047e+02    1.481009e-01    5.617391e+08    7.854790e-10    2.289243e-13    2.789959e-10    5.113175e-11    6.700000e-01    7.476718e-01    7.217380e-02
    1.843864e+01    1.652141e+02    1.783419e-01    6.523900e+08    8.022230e-10    2.495352e-13    3.043172e-10    5.541510e-11    6.800000e-01    7.476718e-01    7.450334e-02
    1.813696e+01    1.665373e+02    2.141337e-01    7.537742e+08    8.200275e-10    2.712891e-13    3.310348e-10    5.990400e-11    6.900000e-01    7.476718e-01    7.712760e-02
    1.781209e+01    1.679349e+02    2.563049e-01    8.661843e+08    8.388445e-10    2.941272e-13    3.590782e-10    6.458345e-11    7.000000e-01    7.476718e-01    8.006081e-02
    1.746242e+01    1.693617e+02    3.057485e-01    9.896778e+08    8.586085e-10    3.179706e-13    3.883525e-10    6.943460e-11    7.100000e-01    7.476718e-01    8.331365e-02
    1.708727e+01    1.707692e+02    3.634109e-01    1.124049e+09    8.792360e-10    3.427199e-13    4.187386e-10    7.443505e-11    7.200000e-01    7.476718e-01    8.689284e-02
    1.668694e+01    1.721088e+02    4.302761e-01    1.268818e+09    9.006265e-10    3.682563e-13    4.500948e-10    7.955890e-11    7.300000e-01    7.476718e-01    9.080086e-02
    1.626278e+01    1.733333e+02    5.073475e-01    1.423235e+09    9.226645e-10    3.944435e-13    4.822583e-10    8.477750e-11    7.400000e-01    7.476718e-01    9.503591e-02
    1.581724e+01    1.744013e+02    5.956265e-01    1.586324e+09    9.452200e-10    4.211299e-13    5.150490e-10    9.005990e-11    7.500000e-01    7.476718e-01    9.959201e-02
    1.535354e+01    1.752772e+02    6.960925e-01    1.756915e+09    9.681550e-10    4.481525e-13    5.482730e-10    9.537370e-11    7.600000e-01    7.476718e-01    1.044593e-01
    1.487561e+01    1.759338e+02    8.096800e-01    1.933720e+09    9.913215e-10    4.753401e-13    5.817285e-10    1.006858e-10    7.700000e-01    7.476718e-01    1.096247e-01
    1.438769e+01    1.763517e+02    9.372620e-01    2.115388e+09    1.014570e-09    5.025180e-13    6.152080e-10    1.059629e-10    7.800000e-01    7.476718e-01    1.150720e-01
    1.389422e+01    1.765207e+02    1.079632e+00    2.300575e+09    1.037753e-09    5.295125e-13    6.485075e-10    1.111731e-10    7.900000e-01    7.476718e-01    1.207830e-01
    1.339951e+01    1.764377e+02    1.237495e+00    2.488004e+09    1.060722e-09    5.561550e-13    6.814285e-10    1.162859e-10    8.000000e-01    7.476718e-01    1.267381e-01
    1.290760e+01    1.761066e+02    1.411455e+00    2.676501e+09    1.083342e-09    5.822865e-13    7.137845e-10    1.212734e-10    8.100000e-01    7.476718e-01    1.329165e-01
    1.242211e+01    1.755370e+02    1.602017e+00    2.865037e+09    1.105484e-09    6.077595e-13    7.454030e-10    1.261108e-10    8.200000e-01    7.476718e-01    1.392972e-01
    1.194615e+01    1.747428e+02    1.809582e+00    3.052735e+09    1.127035e-09    6.324430e-13    7.761330e-10    1.307766e-10    8.300000e-01    7.476718e-01    1.458592e-01
    1.148233e+01    1.737411e+02    2.034454e+00    3.238882e+09    1.147897e-09    6.562240e-13    8.058425e-10    1.352529e-10    8.400000e-01    7.476718e-01    1.525821e-01
    1.103269e+01    1.725510e+02    2.276845e+00    3.422921e+09    1.167986e-09    6.790075e-13    8.344225e-10    1.395258e-10    8.500000e-01    7.476718e-01    1.594464e-01
    1.059877e+01    1.711927e+02    2.536878e+00    3.604435e+09    1.187239e-09    7.007190e-13    8.617875e-10    1.435851e-10    8.600000e-01    7.476718e-01    1.664337e-01
    1.018165e+01    1.696864e+02    2.814606e+00    3.783134e+09    1.205603e-09    7.213015e-13    8.878750e-10    1.474245e-10    8.700000e-01    7.476718e-01    1.735266e-01
    9.782004e+00    1.680521e+02    3.110010e+00    3.958832e+09    1.223046e-09    7.407185e-13    9.126445e-10    1.510407e-10    8.800000e-01    7.476718e-01    1.807093e-01
    9.400155e+00    1.663090e+02    3.423015e+00    4.131430e+09    1.239549e-09    7.589495e-13    9.360740e-10    1.544336e-10    8.900000e-01    7.476718e-01    1.879672e-01
    9.036137e+00    1.644748e+02    3.753499e+00    4.300897e+09    1.255106e-09    7.759890e-13    9.581620e-10    1.576059e-10    9.000000e-01    7.476718e-01    1.952870e-01
    8.689761e+00    1.625662e+02    4.101298e+00    4.467250e+09    1.269723e-09    7.918460e-13    9.789210e-10    1.605625e-10    9.100000e-01    7.476718e-01    2.026570e-01
    8.360649e+00    1.605981e+02    4.466215e+00    4.630545e+09    1.283417e-09    8.065405e-13    9.983780e-10    1.633101e-10    9.200000e-01    7.476718e-01    2.100663e-01
    8.048294e+00    1.585839e+02    4.848029e+00    4.790862e+09    1.296210e-09    8.201030e-13    1.016571e-09    1.658570e-10    9.300000e-01    7.476718e-01    2.175056e-01
    7.752084e+00    1.565356e+02    5.246500e+00    4.948291e+09    1.308137e-09    8.325700e-13    1.033546e-09    1.682124e-10    9.400000e-01    7.476718e-01    2.249664e-01
    7.471350e+00    1.544638e+02    5.661370e+00    5.102935e+09    1.319231e-09    8.439850e-13    1.049356e-09    1.703866e-10    9.500000e-01    7.476718e-01    2.324413e-01
    7.205377e+00    1.523776e+02    6.092370e+00    5.254898e+09    1.329532e-09    8.543955e-13    1.064061e-09    1.723901e-10    9.600000e-01    7.476718e-01    2.399237e-01
    6.953420e+00    1.502849e+02    6.539235e+00    5.404282e+09    1.339083e-09    8.638515e-13    1.077719e-09    1.742337e-10    9.700000e-01    7.476718e-01    2.474081e-01
    6.714748e+00    1.481926e+02    7.001680e+00    5.551181e+09    1.347928e-09    8.724045e-13    1.090394e-09    1.759283e-10    9.800000e-01    7.476718e-01    2.548893e-01
    6.488625e+00    1.461065e+02    7.479430e+00    5.695688e+09    1.356110e-09    8.801065e-13    1.102151e-09    1.774846e-10    9.900000e-01    7.476718e-01    2.623631e-01
    6.274333e+00    1.440314e+02    7.972210e+00    5.837887e+09    1.363674e-09    8.870085e-13    1.113048e-09    1.789129e-10    1.000000e+00    7.476718e-01    2.698257e-01
    6.071179e+00    1.419715e+02    8.479745e+00    5.977854e+09    1.370663e-09    8.931610e-13    1.123149e-09    1.802234e-10    1.010000e+00    7.476718e-01    2.772740e-01
    5.878495e+00    1.399299e+02    9.001760e+00    6.115653e+09    1.377117e-09    8.986125e-13    1.132511e-09    1.814254e-10    1.020000e+00    7.476718e-01    2.847051e-01
    5.695655e+00    1.379096e+02    9.537990e+00    6.251355e+09    1.383078e-09    9.034100e-13    1.141191e-09    1.825281e-10    1.030000e+00    7.476718e-01    2.921167e-01
    5.522044e+00    1.359128e+02    1.008817e+01    6.385003e+09    1.388582e-09    9.075970e-13    1.149242e-09    1.835398e-10    1.040000e+00    7.476718e-01    2.995067e-01
    5.357105e+00    1.339412e+02    1.065205e+01    6.516656e+09    1.393666e-09    9.112150e-13    1.156714e-09    1.844686e-10    1.050000e+00    7.476718e-01    3.068734e-01
    5.200294e+00    1.319962e+02    1.122937e+01    6.646350e+09    1.398365e-09    9.143030e-13    1.163654e-09    1.853216e-10    1.060000e+00    7.476718e-01    3.142155e-01
    5.051109e+00    1.300787e+02    1.181989e+01    6.774122e+09    1.402708e-09    9.168975e-13    1.170107e-09    1.861059e-10    1.070000e+00    7.476718e-01    3.215315e-01
    4.909085e+00    1.281898e+02    1.242337e+01    6.900018e+09    1.406727e-09    9.190315e-13    1.176113e-09    1.868276e-10    1.080000e+00    7.476718e-01    3.288207e-01
    4.773773e+00    1.263297e+02    1.303956e+01    7.024058e+09    1.410447e-09    9.207365e-13    1.181710e-09    1.874924e-10    1.090000e+00    7.476718e-01    3.360820e-01
    4.644762e+00    1.244987e+02    1.366825e+01    7.146267e+09    1.413895e-09    9.220400e-13    1.186933e-09    1.881056e-10    1.100000e+00    7.476718e-01    3.433149e-01
    4.521671e+00    1.226972e+02    1.430920e+01    7.266679e+09    1.417094e-09    9.229690e-13    1.191815e-09    1.886720e-10    1.110000e+00    7.476718e-01    3.505187e-01
    4.404140e+00    1.209251e+02    1.496220e+01    7.385314e+09    1.420064e-09    9.235465e-13    1.196384e-09    1.891960e-10    1.120000e+00    7.476718e-01    3.576931e-01
    4.291836e+00    1.191822e+02    1.562704e+01    7.502193e+09    1.422826e-09    9.237940e-13    1.200668e-09    1.896816e-10    1.130000e+00    7.476718e-01    3.648378e-01
    4.184444e+00    1.174684e+02    1.630351e+01    7.617332e+09    1.425397e-09    9.237310e-13    1.204691e-09    1.901323e-10    1.140000e+00    7.476718e-01    3.719524e-01
    4.081678e+00    1.157833e+02    1.699140e+01    7.730760e+09    1.427795e-09    9.233750e-13    1.208476e-09    1.905515e-10    1.150000e+00    7.476718e-01    3.790369e-01
    3.983263e+00    1.141265e+02    1.769051e+01    7.842482e+09    1.430033e-09    9.227420e-13    1.212044e-09    1.909421e-10    1.160000e+00    7.476718e-01    3.860911e-01
    3.888955e+00    1.124980e+02    1.840065e+01    7.952532e+09    1.432125e-09    9.218455e-13    1.215413e-09    1.913067e-10    1.170000e+00    7.476718e-01    3.931151e-01
    3.798518e+00    1.108970e+02    1.912163e+01    8.060920e+09    1.434084e-09    9.206985e-13    1.218600e-09    1.916479e-10    1.180000e+00    7.476718e-01    4.001087e-01
    3.711727e+00    1.093232e+02    1.985327e+01    8.167658e+09    1.435921e-09    9.193120e-13    1.221620e-09    1.919677e-10    1.190000e+00    7.476718e-01    4.070721e-01
    3.628386e+00    1.077760e+02    2.059537e+01    8.272773e+09    1.437647e-09    9.176960e-13    1.224488e-09    1.922681e-10    1.200000e+00    7.476718e-01    4.140054e-01
    3.548306e+00    1.062552e+02    2.134777e+01    8.376283e+09    1.439270e-09    9.158590e-13    1.227216e-09    1.925510e-10    1.210000e+00    7.476718e-01    4.209087e-01
    3.471304e+00    1.047600e+02    2.211028e+01    8.478199e+09    1.440799e-09    9.138085e-13    1.229817e-09    1.928179e-10    1.220000e+00    7.476718e-01    4.277821e-01
    3.397220e+00    1.032900e+02    2.288274e+01    8.578546e+09    1.442242e-09    9.115515e-13    1.232299e-09    1.930702e-10    1.230000e+00    7.476718e-01    4.346258e-01
    3.325898e+00    1.018447e+02    2.366498e+01    8.677337e+09    1.443606e-09    9.090930e-13    1.234674e-09    1.933093e-10    1.240000e+00    7.476718e-01    4.414401e-01
    3.257194e+00    1.004237e+02    2.445683e+01    8.774595e+09    1.444897e-09    9.064385e-13    1.236949e-09    1.935363e-10    1.250000e+00    7.476718e-01    4.482251e-01
    3.190974e+00    9.902636e+01    2.525814e+01    8.870335e+09    1.446121e-09    9.035915e-13    1.239132e-09    1.937523e-10    1.260000e+00    7.476718e-01    4.549810e-01
    3.127110e+00    9.765219e+01    2.606874e+01    8.964576e+09    1.447283e-09    9.005555e-13    1.241231e-09    1.939581e-10    1.270000e+00    7.476718e-01    4.617082e-01
    3.065486e+00    9.630079e+01    2.688848e+01    9.057342e+09    1.448388e-09    8.973335e-13    1.243252e-09    1.941548e-10    1.280000e+00    7.476718e-01    4.684069e-01
    3.005992e+00    9.497162e+01    2.771721e+01    9.148653e+09    1.449440e-09    8.939265e-13    1.245200e-09    1.943430e-10    1.290000e+00    7.476718e-01    4.750773e-01
    2.948522e+00    9.366428e+01    2.855478e+01    9.238526e+09    1.450443e-09    8.903370e-13    1.247082e-09    1.945234e-10    1.300000e+00    7.476718e-01    4.817197e-01
    2.892980e+00    9.237822e+01    2.940105e+01    9.326979e+09    1.451401e-09    8.865650e-13    1.248901e-09    1.946967e-10    1.310000e+00    7.476718e-01    4.883344e-01
    2.839274e+00    9.111309e+01    3.025587e+01    9.414035e+09    1.452316e-09    8.826115e-13    1.250663e-09    1.948633e-10    1.320000e+00    7.476718e-01    4.949217e-01
    2.787317e+00    8.986828e+01    3.111910e+01    9.499708e+09    1.453193e-09    8.784760e-13    1.252370e-09    1.950240e-10    1.330000e+00    7.476718e-01    5.014818e-01
    2.737032e+00    8.864354e+01    3.199060e+01    9.584030e+09    1.454033e-09    8.741590e-13    1.254028e-09    1.951790e-10    1.340000e+00    7.476718e-01    5.080152e-01
    2.688339e+00    8.743837e+01    3.287024e+01    9.667009e+09    1.454839e-09    8.696585e-13    1.255638e-09    1.953289e-10    1.350000e+00    7.476718e-01    5.145219e-01
    2.641169e+00    8.625234e+01    3.375788e+01    9.748669e+09    1.455613e-09    8.649740e-13    1.257206e-09    1.954740e-10    1.360000e+00    7.476718e-01    5.210025e-01
    2.595452e+00    8.508506e+01    3.465340e+01    9.829036e+09    1.456358e-09    8.601035e-13    1.258732e-09    1.956145e-10    1.370000e+00    7.476718e-01    5.274571e-01
    2.551125e+00    8.393611e+01    3.555667e+01    9.908117e+09    1.457075e-09    8.550455e-13    1.260220e-09    1.957510e-10    1.380000e+00    7.476718e-01    5.338861e-01
    2.508130e+00    8.280517e+01    3.646755e+01    9.985949e+09    1.457765e-09    8.497975e-13    1.261671e-09    1.958835e-10    1.390000e+00    7.476718e-01    5.402897e-01
    2.466408e+00    8.169182e+01    3.738593e+01    1.006254e+10    1.458431e-09    8.443570e-13    1.263088e-09    1.960124e-10    1.400000e+00    7.476718e-01    5.466683e-01
    2.425906e+00    8.059571e+01    3.831169e+01    1.013791e+10    1.459073e-09    8.387210e-13    1.264473e-09    1.961379e-10    1.410000e+00    7.476718e-01    5.530222e-01
    2.386573e+00    7.951651e+01    3.924470e+01    1.021208e+10    1.459694e-09    8.328865e-13    1.265827e-09    1.962603e-10    1.420000e+00    7.476718e-01    5.593516e-01
    2.348361e+00    7.845380e+01    4.018485e+01    1.028507e+10    1.460294e-09    8.268500e-13    1.267154e-09    1.963797e-10    1.430000e+00    7.476718e-01    5.656569e-01
