# GF180MCU-D pfet_03v3 gm/ID Processed Lookup Table
# Corner: sf
# Temperature: -40C
# W = 2.0 um
# L = 5.5 um (5500 nm)
# Columns: gm/id [1/V]  gm/gds [V/V]  id/W [A/m]  ft [Hz]  Cgg/W [F/m]  Cgd/W [F/m]  Cgs/W [F/m]  Cdb/W [F/m]  vgs [V]  vth [V]  vdsat [V]
# vdsat = BSIM saturation voltage (|VDS|_sat, positive); use for headroom / saturation / cascode-bias calculations
#           gm/id          gm/gds            id/W              ft           Cgg/W           Cgd/W           Cgs/W           Cdb/W             vgs             vth           vdsat
    5.738214e-01    3.760828e+00    1.596093e+01    7.814203e+07    1.865393e-08    4.142940e-10    1.853607e-08    3.194317e-09   -3.300000e+00    7.496096e-01    1.908711e+00
    5.789279e-01    3.876870e+00    1.586934e+01    7.841173e+07    1.864757e-08    4.001502e-10    1.853259e-08    3.193529e-09   -3.290000e+00    7.496096e-01    1.900264e+00
    5.841003e-01    3.999152e+00    1.577718e+01    7.867862e+07    1.864147e-08    3.864871e-10    1.852885e-08    3.192730e-09   -3.280000e+00    7.496096e-01    1.891826e+00
    5.893225e-01    4.128128e+00    1.568488e+01    7.894247e+07    1.863562e-08    3.732912e-10    1.852485e-08    3.191923e-09   -3.270000e+00    7.496096e-01    1.883398e+00
    5.945990e-01    4.264296e+00    1.559232e+01    7.920308e+07    1.863000e-08    3.605491e-10    1.852062e-08    3.191106e-09   -3.260000e+00    7.496096e-01    1.874980e+00
    5.999297e-01    4.408197e+00    1.549947e+01    7.946025e+07    1.862461e-08    3.482474e-10    1.851615e-08    3.190283e-09   -3.250000e+00    7.496096e-01    1.866572e+00
    6.053138e-01    4.560418e+00    1.540634e+01    7.971374e+07    1.861946e-08    3.363731e-10    1.851145e-08    3.189452e-09   -3.240000e+00    7.496096e-01    1.858174e+00
    6.107497e-01    4.721596e+00    1.531295e+01    7.996329e+07    1.861451e-08    3.249130e-10    1.850653e-08    3.188616e-09   -3.230000e+00    7.496096e-01    1.849785e+00
    6.162368e-01    4.892426e+00    1.521930e+01    8.020863e+07    1.860978e-08    3.138544e-10    1.850140e-08    3.187775e-09   -3.220000e+00    7.496096e-01    1.841407e+00
    6.217738e-01    5.073662e+00    1.512538e+01    8.044948e+07    1.860526e-08    3.031847e-10    1.849605e-08    3.186929e-09   -3.210000e+00    7.496096e-01    1.833038e+00
    6.273589e-01    5.266120e+00    1.503120e+01    8.068547e+07    1.860093e-08    2.928914e-10    1.849051e-08    3.186079e-09   -3.200000e+00    7.496096e-01    1.824679e+00
    6.329902e-01    5.470692e+00    1.493678e+01    8.091629e+07    1.859680e-08    2.829622e-10    1.848478e-08    3.185225e-09   -3.190000e+00    7.496096e-01    1.816330e+00
    6.386659e-01    5.688342e+00    1.484211e+01    8.114162e+07    1.859285e-08    2.733854e-10    1.847886e-08    3.184370e-09   -3.180000e+00    7.496096e-01    1.807990e+00
    6.443840e-01    5.920121e+00    1.474720e+01    8.136108e+07    1.858907e-08    2.641491e-10    1.847276e-08    3.183512e-09   -3.170000e+00    7.496096e-01    1.799660e+00
    6.501416e-01    6.167156e+00    1.465206e+01    8.157420e+07    1.858548e-08    2.552419e-10    1.846648e-08    3.182653e-09   -3.160000e+00    7.496096e-01    1.791340e+00
    6.559357e-01    6.430677e+00    1.455668e+01    8.178058e+07    1.858206e-08    2.466528e-10    1.846004e-08    3.181793e-09   -3.150000e+00    7.496096e-01    1.783029e+00
    6.617642e-01    6.712016e+00    1.446110e+01    8.197986e+07    1.857879e-08    2.383706e-10    1.845343e-08    3.180932e-09   -3.140000e+00    7.496096e-01    1.774728e+00
    6.676231e-01    7.012595e+00    1.436529e+01    8.217150e+07    1.857568e-08    2.303849e-10    1.844667e-08    3.180071e-09   -3.130000e+00    7.496096e-01    1.766437e+00
    6.735092e-01    7.333955e+00    1.426928e+01    8.235508e+07    1.857272e-08    2.226852e-10    1.843976e-08    3.179211e-09   -3.120000e+00    7.496096e-01    1.758155e+00
    6.794188e-01    7.677749e+00    1.417309e+01    8.253008e+07    1.856991e-08    2.152615e-10    1.843270e-08    3.178351e-09   -3.110000e+00    7.496096e-01    1.749883e+00
    6.853481e-01    8.045752e+00    1.407670e+01    8.269609e+07    1.856723e-08    2.081041e-10    1.842551e-08    3.177492e-09   -3.100000e+00    7.496096e-01    1.741621e+00
    6.912931e-01    8.439846e+00    1.398014e+01    8.285257e+07    1.856470e-08    2.012034e-10    1.841817e-08    3.176635e-09   -3.090000e+00    7.496096e-01    1.733368e+00
    6.972496e-01    8.862052e+00    1.388341e+01    8.299905e+07    1.856229e-08    1.945502e-10    1.841071e-08    3.175780e-09   -3.080000e+00    7.496096e-01    1.725124e+00
    7.032134e-01    9.314504e+00    1.378654e+01    8.313509e+07    1.856001e-08    1.881357e-10    1.840311e-08    3.174927e-09   -3.070000e+00    7.496096e-01    1.716890e+00
    7.091805e-01    9.799445e+00    1.368952e+01    8.326022e+07    1.855785e-08    1.819510e-10    1.839540e-08    3.174076e-09   -3.060000e+00    7.496096e-01    1.708666e+00
    7.151462e-01    1.031926e+01    1.359238e+01    8.337400e+07    1.855580e-08    1.759879e-10    1.838757e-08    3.173227e-09   -3.050000e+00    7.496096e-01    1.700451e+00
    7.211061e-01    1.087642e+01    1.349512e+01    8.347600e+07    1.855386e-08    1.702384e-10    1.837962e-08    3.172381e-09   -3.040000e+00    7.496096e-01    1.692245e+00
    7.270569e-01    1.147350e+01    1.339776e+01    8.356588e+07    1.855204e-08    1.646943e-10    1.837157e-08    3.171539e-09   -3.030000e+00    7.496096e-01    1.684049e+00
    7.329947e-01    1.211319e+01    1.330030e+01    8.364334e+07    1.855030e-08    1.593483e-10    1.836340e-08    3.170700e-09   -3.020000e+00    7.496096e-01    1.675862e+00
    7.389159e-01    1.279823e+01    1.320278e+01    8.370807e+07    1.854868e-08    1.541931e-10    1.835514e-08    3.169863e-09   -3.010000e+00    7.496096e-01    1.667685e+00
    7.448164e-01    1.353140e+01    1.310519e+01    8.375979e+07    1.854715e-08    1.492213e-10    1.834677e-08    3.169031e-09   -3.000000e+00    7.496096e-01    1.659517e+00
    7.506946e-01    1.431559e+01    1.300756e+01    8.379846e+07    1.854570e-08    1.444265e-10    1.833831e-08    3.168201e-09   -2.990000e+00    7.496096e-01    1.651358e+00
    7.565466e-01    1.515360e+01    1.290991e+01    8.382381e+07    1.854435e-08    1.398019e-10    1.832976e-08    3.167376e-09   -2.980000e+00    7.496096e-01    1.643209e+00
    7.623716e-01    1.604833e+01    1.281223e+01    8.383586e+07    1.854308e-08    1.353411e-10    1.832111e-08    3.166553e-09   -2.970000e+00    7.496096e-01    1.635069e+00
    7.681673e-01    1.700257e+01    1.271456e+01    8.383461e+07    1.854188e-08    1.310380e-10    1.831238e-08    3.165736e-09   -2.960000e+00    7.496096e-01    1.626938e+00
    7.739333e-01    1.801909e+01    1.261690e+01    8.382016e+07    1.854077e-08    1.268868e-10    1.830356e-08    3.164921e-09   -2.950000e+00    7.496096e-01    1.618816e+00
    7.796684e-01    1.910053e+01    1.251927e+01    8.379261e+07    1.853972e-08    1.228817e-10    1.829467e-08    3.164111e-09   -2.940000e+00    7.496096e-01    1.610704e+00
    7.853724e-01    2.024941e+01    1.242168e+01    8.375209e+07    1.853875e-08    1.190173e-10    1.828570e-08    3.163305e-09   -2.930000e+00    7.496096e-01    1.602601e+00
    7.910462e-01    2.146817e+01    1.232416e+01    8.369898e+07    1.853784e-08    1.152882e-10    1.827664e-08    3.162503e-09   -2.920000e+00    7.496096e-01    1.594507e+00
    7.966902e-01    2.275898e+01    1.222671e+01    8.363340e+07    1.853700e-08    1.116895e-10    1.826751e-08    3.161704e-09   -2.910000e+00    7.496096e-01    1.586423e+00
    8.023063e-01    2.412388e+01    1.212935e+01    8.355578e+07    1.853622e-08    1.082162e-10    1.825831e-08    3.160910e-09   -2.900000e+00    7.496096e-01    1.578347e+00
    8.078953e-01    2.556463e+01    1.203209e+01    8.346642e+07    1.853550e-08    1.048635e-10    1.824904e-08    3.160119e-09   -2.890000e+00    7.496096e-01    1.570281e+00
    8.134602e-01    2.708282e+01    1.193494e+01    8.336580e+07    1.853483e-08    1.016271e-10    1.823970e-08    3.159333e-09   -2.880000e+00    7.496096e-01    1.562224e+00
    8.190028e-01    2.867971e+01    1.183792e+01    8.325425e+07    1.853422e-08    9.850250e-11    1.823029e-08    3.158551e-09   -2.870000e+00    7.496096e-01    1.554176e+00
    8.245253e-01    3.035632e+01    1.174104e+01    8.313223e+07    1.853366e-08    9.548555e-11    1.822082e-08    3.157772e-09   -2.860000e+00    7.496096e-01    1.546137e+00
    8.300306e-01    3.211341e+01    1.164431e+01    8.300014e+07    1.853314e-08    9.257220e-11    1.821129e-08    3.156998e-09   -2.850000e+00    7.496096e-01    1.538107e+00
    8.355223e-01    3.395145e+01    1.154774e+01    8.285846e+07    1.853268e-08    8.975855e-11    1.820169e-08    3.156227e-09   -2.840000e+00    7.496096e-01    1.530086e+00
    8.410029e-01    3.587065e+01    1.145134e+01    8.270767e+07    1.853225e-08    8.704095e-11    1.819203e-08    3.155459e-09   -2.830000e+00    7.496096e-01    1.522074e+00
    8.464755e-01    3.787091e+01    1.135513e+01    8.254814e+07    1.853187e-08    8.441575e-11    1.818232e-08    3.154696e-09   -2.820000e+00    7.496096e-01    1.514071e+00
    8.519434e-01    3.995192e+01    1.125911e+01    8.238036e+07    1.853152e-08    8.187950e-11    1.817255e-08    3.153936e-09   -2.810000e+00    7.496096e-01    1.506077e+00
    8.574103e-01    4.211311e+01    1.116329e+01    8.220475e+07    1.853122e-08    7.942900e-11    1.816272e-08    3.153180e-09   -2.800000e+00    7.496096e-01    1.498092e+00
    8.628782e-01    4.435367e+01    1.106768e+01    8.202168e+07    1.853095e-08    7.706095e-11    1.815283e-08    3.152427e-09   -2.790000e+00    7.496096e-01    1.490117e+00
    8.683515e-01    4.667259e+01    1.097229e+01    8.183158e+07    1.853071e-08    7.477230e-11    1.814290e-08    3.151678e-09   -2.780000e+00    7.496096e-01    1.482150e+00
    8.738329e-01    4.906866e+01    1.087712e+01    8.163481e+07    1.853051e-08    7.256020e-11    1.813291e-08    3.150932e-09   -2.770000e+00    7.496096e-01    1.474192e+00
    8.793256e-01    5.154054e+01    1.078219e+01    8.143177e+07    1.853033e-08    7.042180e-11    1.812286e-08    3.150189e-09   -2.760000e+00    7.496096e-01    1.466243e+00
    8.848323e-01    5.408669e+01    1.068750e+01    8.122277e+07    1.853018e-08    6.835430e-11    1.811277e-08    3.149449e-09   -2.750000e+00    7.496096e-01    1.458302e+00
    8.903556e-01    5.670548e+01    1.059306e+01    8.100810e+07    1.853006e-08    6.635520e-11    1.810263e-08    3.148712e-09   -2.740000e+00    7.496096e-01    1.450371e+00
    8.958998e-01    5.939524e+01    1.049887e+01    8.078816e+07    1.852997e-08    6.442195e-11    1.809244e-08    3.147979e-09   -2.730000e+00    7.496096e-01    1.442448e+00
    9.014661e-01    6.215409e+01    1.040495e+01    8.056313e+07    1.852990e-08    6.255215e-11    1.808220e-08    3.147248e-09   -2.720000e+00    7.496096e-01    1.434535e+00
    9.070572e-01    6.498024e+01    1.031128e+01    8.033334e+07    1.852985e-08    6.074345e-11    1.807191e-08    3.146520e-09   -2.710000e+00    7.496096e-01    1.426630e+00
    9.126767e-01    6.787178e+01    1.021789e+01    8.009902e+07    1.852982e-08    5.899365e-11    1.806158e-08    3.145795e-09   -2.700000e+00    7.496096e-01    1.418734e+00
    9.183265e-01    7.082683e+01    1.012477e+01    7.986042e+07    1.852981e-08    5.730065e-11    1.805119e-08    3.145072e-09   -2.690000e+00    7.496096e-01    1.410846e+00
    9.240092e-01    7.384356e+01    1.003194e+01    7.961778e+07    1.852982e-08    5.566235e-11    1.804077e-08    3.144351e-09   -2.680000e+00    7.496096e-01    1.402968e+00
    9.297265e-01    7.691995e+01    9.939380e+00    7.937123e+07    1.852984e-08    5.407675e-11    1.803030e-08    3.143633e-09   -2.670000e+00    7.496096e-01    1.395098e+00
    9.354806e-01    8.005432e+01    9.847120e+00    7.912098e+07    1.852988e-08    5.254205e-11    1.801978e-08    3.142917e-09   -2.660000e+00    7.496096e-01    1.387237e+00
    9.412746e-01    8.324483e+01    9.755150e+00    7.886726e+07    1.852993e-08    5.105635e-11    1.800923e-08    3.142204e-09   -2.650000e+00    7.496096e-01    1.379385e+00
    9.471101e-01    8.648979e+01    9.663475e+00    7.861017e+07    1.852999e-08    4.961790e-11    1.799863e-08    3.141492e-09   -2.640000e+00    7.496096e-01    1.371541e+00
    9.529894e-01    8.978755e+01    9.572100e+00    7.834989e+07    1.853007e-08    4.822504e-11    1.798798e-08    3.140782e-09   -2.630000e+00    7.496096e-01    1.363706e+00
    9.589132e-01    9.313648e+01    9.481035e+00    7.808653e+07    1.853016e-08    4.687615e-11    1.797729e-08    3.140074e-09   -2.620000e+00    7.496096e-01    1.355880e+00
    9.648849e-01    9.653517e+01    9.390275e+00    7.782026e+07    1.853025e-08    4.556965e-11    1.796656e-08    3.139368e-09   -2.610000e+00    7.496096e-01    1.348062e+00
    9.709054e-01    9.998212e+01    9.299825e+00    7.755114e+07    1.853035e-08    4.430407e-11    1.795579e-08    3.138663e-09   -2.600000e+00    7.496096e-01    1.340253e+00
    9.769770e-01    1.034761e+02    9.209690e+00    7.727932e+07    1.853046e-08    4.307795e-11    1.794498e-08    3.137960e-09   -2.590000e+00    7.496096e-01    1.332452e+00
    9.831017e-01    1.070160e+02    9.119870e+00    7.700488e+07    1.853058e-08    4.188991e-11    1.793412e-08    3.137258e-09   -2.580000e+00    7.496096e-01    1.324660e+00
    9.892806e-01    1.106005e+02    9.030375e+00    7.672795e+07    1.853070e-08    4.073863e-11    1.792322e-08    3.136557e-09   -2.570000e+00    7.496096e-01    1.316877e+00
    9.955157e-01    1.142286e+02    8.941200e+00    7.644856e+07    1.853083e-08    3.962282e-11    1.791228e-08    3.135858e-09   -2.560000e+00    7.496096e-01    1.309102e+00
    1.001809e+00    1.178995e+02    8.852355e+00    7.616685e+07    1.853095e-08    3.854124e-11    1.790130e-08    3.135159e-09   -2.550000e+00    7.496096e-01    1.301335e+00
    1.008161e+00    1.216123e+02    8.763835e+00    7.588281e+07    1.853108e-08    3.749273e-11    1.789028e-08    3.134461e-09   -2.540000e+00    7.496096e-01    1.293577e+00
    1.014575e+00    1.253663e+02    8.675645e+00    7.559658e+07    1.853121e-08    3.647612e-11    1.787922e-08    3.133764e-09   -2.530000e+00    7.496096e-01    1.285828e+00
    1.021051e+00    1.291607e+02    8.587795e+00    7.530821e+07    1.853134e-08    3.549034e-11    1.786811e-08    3.133067e-09   -2.520000e+00    7.496096e-01    1.278087e+00
    1.027592e+00    1.329951e+02    8.500275e+00    7.501774e+07    1.853147e-08    3.453431e-11    1.785697e-08    3.132372e-09   -2.510000e+00    7.496096e-01    1.270355e+00
    1.034198e+00    1.368690e+02    8.413100e+00    7.472523e+07    1.853160e-08    3.360704e-11    1.784578e-08    3.131677e-09   -2.500000e+00    7.496096e-01    1.262631e+00
    1.040873e+00    1.407820e+02    8.326260e+00    7.443071e+07    1.853172e-08    3.270754e-11    1.783455e-08    3.130981e-09   -2.490000e+00    7.496096e-01    1.254915e+00
    1.047617e+00    1.447338e+02    8.239765e+00    7.413426e+07    1.853185e-08    3.183486e-11    1.782328e-08    3.130286e-09   -2.480000e+00    7.496096e-01    1.247208e+00
    1.054432e+00    1.487241e+02    8.153620e+00    7.383592e+07    1.853196e-08    3.098811e-11    1.781197e-08    3.129591e-09   -2.470000e+00    7.496096e-01    1.239509e+00
    1.061319e+00    1.527528e+02    8.067820e+00    7.353571e+07    1.853207e-08    3.016642e-11    1.780062e-08    3.128896e-09   -2.460000e+00    7.496096e-01    1.231819e+00
    1.068280e+00    1.568198e+02    7.982370e+00    7.323362e+07    1.853218e-08    2.936893e-11    1.778923e-08    3.128201e-09   -2.450000e+00    7.496096e-01    1.224136e+00
    1.075317e+00    1.609252e+02    7.897270e+00    7.292977e+07    1.853228e-08    2.859486e-11    1.777779e-08    3.127505e-09   -2.440000e+00    7.496096e-01    1.216463e+00
    1.082432e+00    1.650689e+02    7.812530e+00    7.262420e+07    1.853237e-08    2.784342e-11    1.776632e-08    3.126810e-09   -2.430000e+00    7.496096e-01    1.208797e+00
    1.089626e+00    1.692511e+02    7.728140e+00    7.231685e+07    1.853246e-08    2.711385e-11    1.775480e-08    3.126113e-09   -2.420000e+00    7.496096e-01    1.201140e+00
    1.096899e+00    1.734719e+02    7.644115e+00    7.200778e+07    1.853253e-08    2.640544e-11    1.774325e-08    3.125416e-09   -2.410000e+00    7.496096e-01    1.193491e+00
    1.104256e+00    1.777316e+02    7.560445e+00    7.169703e+07    1.853260e-08    2.571748e-11    1.773164e-08    3.124718e-09   -2.400000e+00    7.496096e-01    1.185850e+00
    1.111698e+00    1.820305e+02    7.477140e+00    7.138465e+07    1.853265e-08    2.504933e-11    1.772000e-08    3.124019e-09   -2.390000e+00    7.496096e-01    1.178218e+00
    1.119225e+00    1.863688e+02    7.394200e+00    7.107060e+07    1.853269e-08    2.440031e-11    1.770831e-08    3.123320e-09   -2.380000e+00    7.496096e-01    1.170594e+00
    1.126839e+00    1.907470e+02    7.311625e+00    7.075492e+07    1.853272e-08    2.376982e-11    1.769658e-08    3.122619e-09   -2.370000e+00    7.496096e-01    1.162978e+00
    1.134543e+00    1.951656e+02    7.229420e+00    7.043766e+07    1.853274e-08    2.315726e-11    1.768480e-08    3.121917e-09   -2.360000e+00    7.496096e-01    1.155370e+00
    1.142339e+00    1.996250e+02    7.147585e+00    7.011882e+07    1.853275e-08    2.256203e-11    1.767299e-08    3.121214e-09   -2.350000e+00    7.496096e-01    1.147770e+00
    1.150229e+00    2.041258e+02    7.066120e+00    6.979843e+07    1.853274e-08    2.198359e-11    1.766113e-08    3.120509e-09   -2.340000e+00    7.496096e-01    1.140179e+00
    1.158213e+00    2.086683e+02    6.985030e+00    6.947644e+07    1.853272e-08    2.142142e-11    1.764922e-08    3.119802e-09   -2.330000e+00    7.496096e-01    1.132595e+00
    1.166294e+00    2.132535e+02    6.904320e+00    6.915294e+07    1.853269e-08    2.087496e-11    1.763727e-08    3.119094e-09   -2.320000e+00    7.496096e-01    1.125020e+00
    1.174474e+00    2.178818e+02    6.823985e+00    6.882788e+07    1.853263e-08    2.034375e-11    1.762527e-08    3.118384e-09   -2.310000e+00    7.496096e-01    1.117453e+00
    1.182755e+00    2.225540e+02    6.744030e+00    6.850133e+07    1.853256e-08    1.982728e-11    1.761322e-08    3.117672e-09   -2.300000e+00    7.496096e-01    1.109894e+00
    1.191140e+00    2.272708e+02    6.664455e+00    6.817330e+07    1.853247e-08    1.932510e-11    1.760113e-08    3.116958e-09   -2.290000e+00    7.496096e-01    1.102343e+00
    1.199630e+00    2.320329e+02    6.585265e+00    6.784374e+07    1.853237e-08    1.883675e-11    1.758899e-08    3.116242e-09   -2.280000e+00    7.496096e-01    1.094800e+00
    1.208228e+00    2.368411e+02    6.506455e+00    6.751270e+07    1.853224e-08    1.836181e-11    1.757681e-08    3.115523e-09   -2.270000e+00    7.496096e-01    1.087265e+00
    1.216934e+00    2.416963e+02    6.428040e+00    6.718018e+07    1.853210e-08    1.789986e-11    1.756458e-08    3.114802e-09   -2.260000e+00    7.496096e-01    1.079738e+00
    1.225754e+00    2.465995e+02    6.350005e+00    6.684625e+07    1.853193e-08    1.745049e-11    1.755230e-08    3.114078e-09   -2.250000e+00    7.496096e-01    1.072219e+00
    1.234687e+00    2.515513e+02    6.272365e+00    6.651082e+07    1.853174e-08    1.701331e-11    1.753997e-08    3.113352e-09   -2.240000e+00    7.496096e-01    1.064708e+00
    1.243736e+00    2.565527e+02    6.195120e+00    6.617390e+07    1.853154e-08    1.658795e-11    1.752759e-08    3.112623e-09   -2.230000e+00    7.496096e-01    1.057205e+00
    1.252906e+00    2.616049e+02    6.118265e+00    6.583561e+07    1.853131e-08    1.617405e-11    1.751517e-08    3.111891e-09   -2.220000e+00    7.496096e-01    1.049710e+00
