# GF180MCU-D nfet_03v3 gm/ID Processed Lookup Table
# Corner: typical
# Temperature: -40C
# W = 2.0 um
# L = 6 um (6000 nm)
# Columns: gm/id [1/V]  gm/gds [V/V]  id/W [A/m]  ft [Hz]  Cgg/W [F/m]  Cgd/W [F/m]  Cgs/W [F/m]  Cdb/W [F/m]  vgs [V]  vth [V]  vdsat [V]
# vdsat = BSIM saturation voltage (|VDS|_sat, positive); use for headroom / saturation / cascode-bias calculations
#           gm/id          gm/gds            id/W              ft           Cgg/W           Cgd/W           Cgs/W           Cdb/W             vgs             vth           vdsat
    3.396546e+01    7.817739e+02    4.687500e-05    3.331889e+04    7.605160e-09    1.885493e-15    2.121822e-10    5.126255e-11    4.900000e-01    7.269579e-01    2.822148e-02
    3.394060e+01    7.776908e+02    6.583135e-05    4.670443e+04    7.614025e-09    2.224877e-15    2.598408e-10    6.017480e-11    5.000000e-01    7.269579e-01    2.824246e-02
    3.382939e+01    7.730341e+02    9.238970e-05    6.520165e+04    7.629205e-09    2.624719e-15    3.161102e-10    7.063400e-11    5.100000e-01    7.269579e-01    2.827182e-02
    3.364275e+01    7.677820e+02    1.294687e-04    9.059674e+04    7.651800e-09    3.095801e-15    3.825378e-10    8.290360e-11    5.200000e-01    7.269579e-01    2.831271e-02
    3.338764e+01    7.619403e+02    1.810275e-04    1.252032e+05    7.683075e-09    3.650789e-15    4.609132e-10    9.728505e-11    5.300000e-01    7.269579e-01    2.836939e-02
    3.306849e+01    7.555536e+02    2.523922e-04    1.719655e+05    7.724480e-09    4.304520e-15    5.532845e-10    1.141200e-10    5.400000e-01    7.269579e-01    2.844749e-02
    3.268844e+01    7.487187e+02    3.506616e-04    2.345595e+05    7.777670e-09    5.074305e-15    6.619705e-10    1.337912e-10    5.500000e-01    7.269579e-01    2.855441e-02
    3.225032e+01    7.415964e+02    4.852021e-04    3.174771e+05    7.844485e-09    5.980245e-15    7.895620e-10    1.567226e-10    5.600000e-01    7.269579e-01    2.869961e-02
    3.175749e+01    7.344213e+02    6.682425e-04    4.260823e+05    7.926965e-09    7.045550e-15    9.389145e-10    1.833754e-10    5.700000e-01    7.269579e-01    2.889503e-02
    3.121428e+01    7.275047e+02    9.155755e-04    5.666267e+05    8.027320e-09    8.296880e-15    1.113120e-09    2.142436e-10    5.800000e-01    7.269579e-01    2.915534e-02
    3.062621e+01    7.212278e+02    1.247370e-03    7.462127e+05    8.147905e-09    9.764590e-15    1.315460e-09    2.498427e-10    5.900000e-01    7.269579e-01    2.949812e-02
    2.999962e+01    7.160212e+02    1.689105e-03    9.726967e+05    8.291155e-09    1.148301e-14    1.549325e-09    2.906956e-10    6.000000e-01    7.269579e-01    2.994376e-02
    2.934123e+01    7.123344e+02    2.272611e-03    1.254521e+06    8.459515e-09    1.349054e-14    1.818101e-09    3.373112e-10    6.100000e-01    7.269579e-01    3.051511e-02
    2.865711e+01    7.105907e+02    3.037220e-03    1.600461e+06    8.655330e-09    1.582972e-14    2.125016e-09    3.901568e-10    6.200000e-01    7.269579e-01    3.123681e-02
    2.795214e+01    7.111457e+02    4.030970e-03    2.019286e+06    8.880695e-09    1.854707e-14    2.472936e-09    4.496245e-10    6.300000e-01    7.269579e-01    3.213429e-02
    2.722948e+01    7.142444e+02    5.311805e-03    2.519328e+06    9.137280e-09    2.169268e-14    2.864128e-09    5.159905e-10    6.400000e-01    7.269579e-01    3.323261e-02
    2.649084e+01    7.199993e+02    6.948655e-03    3.108004e+06    9.426165e-09    2.531966e-14    3.299987e-09    5.893730e-10    6.500000e-01    7.269579e-01    3.455522e-02
    2.573693e+01    7.283832e+02    9.022320e-03    3.791381e+06    9.747600e-09    2.948320e-14    3.780762e-09    6.696890e-10    6.600000e-01    7.269579e-01    3.612283e-02
    2.496850e+01    7.392425e+02    1.162598e-02    4.573874e+06    1.010085e-08    3.423941e-14    4.305286e-09    7.566170e-10    6.700000e-01    7.269579e-01    3.795259e-02
    2.418694e+01    7.523214e+02    1.486533e-02    5.458176e+06    1.048402e-08    3.964387e-14    4.870785e-09    8.495730e-10    6.800000e-01    7.269579e-01    4.005766e-02
    2.339474e+01    7.672916e+02    1.885822e-02    6.445420e+06    1.089401e-08    4.575008e-14    5.472775e-09    9.477020e-10    6.900000e-01    7.269579e-01    4.244704e-02
    2.259542e+01    7.837801e+02    2.373393e-02    7.535543e+06    1.132650e-08    5.260765e-14    6.105090e-09    1.049896e-09    7.000000e-01    7.269579e-01    4.512582e-02
    2.179316e+01    8.013884e+02    2.963187e-02    8.727668e+06    1.177609e-08    6.026085e-14    6.760080e-09    1.154834e-09    7.100000e-01    7.269579e-01    4.809554e-02
    2.099239e+01    8.197114e+02    3.669999e-02    1.002046e+07    1.223659e-08    6.874695e-14    7.428975e-09    1.261047e-09    7.200000e-01    7.269579e-01    5.135457e-02
    2.019736e+01    8.383478e+02    4.509268e-02    1.141232e+07    1.270126e-08    7.809525e-14    8.102325e-09    1.367001e-09    7.300000e-01    7.269579e-01    5.489860e-02
    1.941193e+01    8.569097e+02    5.496835e-02    1.290140e+07    1.316331e-08    8.832650e-14    8.770575e-09    1.471183e-09    7.400000e-01    7.269579e-01    5.872094e-02
    1.863944e+01    8.750331e+02    6.648680e-02    1.448549e+07    1.361619e-08    9.945270e-14    9.424620e-09    1.572195e-09    7.500000e-01    7.269579e-01    6.281289e-02
    1.788278e+01    8.923878e+02    7.980620e-02    1.616185e+07    1.405403e-08    1.114775e-13    1.005630e-08    1.668817e-09    7.600000e-01    7.269579e-01    6.716395e-02
    1.714442e+01    9.086856e+02    9.508035e-02    1.792707e+07    1.447187e-08    1.243967e-13    1.065874e-08    1.760068e-09    7.700000e-01    7.269579e-01    7.176214e-02
    1.642652e+01    9.236901e+02    1.124558e-01    1.977690e+07    1.486583e-08    1.382000e-13    1.122666e-08    1.845227e-09    7.800000e-01    7.269579e-01    7.659426e-02
    1.573092e+01    9.372198e+02    1.320695e-01    2.170627e+07    1.523322e-08    1.528719e-13    1.175638e-08    1.923842e-09    7.900000e-01    7.269579e-01    8.164614e-02
    1.505920e+01    9.491498e+02    1.540471e-01    2.370936e+07    1.557242e-08    1.683929e-13    1.224580e-08    1.995706e-09    8.000000e-01    7.269579e-01    8.690297e-02
    1.441266e+01    9.594108e+02    1.785015e-01    2.577970e+07    1.588285e-08    1.847418e-13    1.269422e-08    2.060828e-09    8.100000e-01    7.269579e-01    9.234960e-02
    1.379232e+01    9.679840e+02    2.055317e-01    2.791044e+07    1.616478e-08    2.018956e-13    1.310216e-08    2.119394e-09    8.200000e-01    7.269579e-01    9.797084e-02
    1.319889e+01    9.748948e+02    2.352230e-01    3.009448e+07    1.641914e-08    2.198317e-13    1.347103e-08    2.171723e-09    8.300000e-01    7.269579e-01    1.037517e-01
    1.263277e+01    9.802036e+02    2.676472e-01    3.232475e+07    1.664739e-08    2.385284e-13    1.380297e-08    2.218227e-09    8.400000e-01    7.269579e-01    1.096777e-01
    1.209406e+01    9.839992e+02    3.028632e-01    3.459439e+07    1.685129e-08    2.579650e-13    1.410053e-08    2.259370e-09    8.500000e-01    7.269579e-01    1.157349e-01
    1.158258e+01    9.863884e+02    3.409180e-01    3.689687e+07    1.703279e-08    2.781233e-13    1.436653e-08    2.295645e-09    8.600000e-01    7.269579e-01    1.219103e-01
    1.109790e+01    9.874905e+02    3.818480e-01    3.922619e+07    1.719394e-08    2.989871e-13    1.460390e-08    2.327547e-09    8.700000e-01    7.269579e-01    1.281917e-01
    1.063938e+01    9.874299e+02    4.256799e-01    4.157685e+07    1.733675e-08    3.205427e-13    1.481550e-08    2.355554e-09    8.800000e-01    7.269579e-01    1.345678e-01
    1.020618e+01    9.863312e+02    4.724324e-01    4.394394e+07    1.746320e-08    3.427787e-13    1.500413e-08    2.380120e-09    8.900000e-01    7.269579e-01    1.410283e-01
    9.797335e+00    9.843165e+02    5.221175e-01    4.632317e+07    1.757511e-08    3.656864e-13    1.517238e-08    2.401662e-09    9.000000e-01    7.269579e-01    1.475640e-01
    9.411787e+00    9.814989e+02    5.747410e-01    4.871079e+07    1.767418e-08    3.892593e-13    1.532266e-08    2.420561e-09    9.100000e-01    7.269579e-01    1.541665e-01
    9.048412e+00    9.779864e+02    6.303040e-01    5.110362e+07    1.776196e-08    4.134932e-13    1.545714e-08    2.437161e-09    9.200000e-01    7.269579e-01    1.608282e-01
    8.706026e+00    9.738770e+02    6.888045e-01    5.349892e+07    1.783984e-08    4.383861e-13    1.557780e-08    2.451766e-09    9.300000e-01    7.269579e-01    1.675425e-01
    8.383464e+00    9.692576e+02    7.502370e-01    5.589447e+07    1.790908e-08    4.639380e-13    1.568636e-08    2.464643e-09    9.400000e-01    7.269579e-01    1.743035e-01
    8.079557e+00    9.642089e+02    8.145935e-01    5.828843e+07    1.797076e-08    4.901503e-13    1.578439e-08    2.476029e-09    9.500000e-01    7.269579e-01    1.811060e-01
    7.793164e+00    9.587986e+02    8.818645e-01    6.067927e+07    1.802584e-08    5.170265e-13    1.587323e-08    2.486127e-09    9.600000e-01    7.269579e-01    1.879453e-01
    7.523166e+00    9.530878e+02    9.520400e-01    6.306572e+07    1.807518e-08    5.445720e-13    1.595407e-08    2.495114e-09    9.700000e-01    7.269579e-01    1.948175e-01
    7.268511e+00    9.471293e+02    1.025108e+00    6.544680e+07    1.811952e-08    5.727925e-13    1.602793e-08    2.503144e-09    9.800000e-01    7.269579e-01    2.017191e-01
    7.028185e+00    9.409695e+02    1.101056e+00    6.782178e+07    1.815948e-08    6.016960e-13    1.609572e-08    2.510348e-09    9.900000e-01    7.269579e-01    2.086470e-01
    6.801238e+00    9.346471e+02    1.179872e+00    7.019005e+07    1.819564e-08    6.312915e-13    1.615820e-08    2.516840e-09    1.000000e+00    7.269579e-01    2.155985e-01
    6.586765e+00    9.281961e+02    1.261543e+00    7.255113e+07    1.822847e-08    6.615885e-13    1.621605e-08    2.522716e-09    1.010000e+00    7.269579e-01    2.225712e-01
    6.383925e+00    9.216453e+02    1.346057e+00    7.490469e+07    1.825839e-08    6.925980e-13    1.626984e-08    2.528060e-09    1.020000e+00    7.269579e-01    2.295633e-01
    6.191930e+00    9.150181e+02    1.433402e+00    7.725052e+07    1.828575e-08    7.243325e-13    1.632009e-08    2.532941e-09    1.030000e+00    7.269579e-01    2.365729e-01
    6.010046e+00    9.083351e+02    1.523564e+00    7.958842e+07    1.831086e-08    7.568040e-13    1.636720e-08    2.537422e-09    1.040000e+00    7.269579e-01    2.435984e-01
    5.837585e+00    9.016128e+02    1.616532e+00    8.191822e+07    1.833399e-08    7.900265e-13    1.641156e-08    2.541554e-09    1.050000e+00    7.269579e-01    2.506387e-01
    5.673923e+00    8.948671e+02    1.712292e+00    8.424000e+07    1.835537e-08    8.240145e-13    1.645349e-08    2.545380e-09    1.060000e+00    7.269579e-01    2.576925e-01
    5.518461e+00    8.881082e+02    1.810836e+00    8.655358e+07    1.837520e-08    8.587830e-13    1.649325e-08    2.548940e-09    1.070000e+00    7.269579e-01    2.647588e-01
    5.370659e+00    8.813463e+02    1.912149e+00    8.885902e+07    1.839365e-08    8.943480e-13    1.653110e-08    2.552267e-09    1.080000e+00    7.269579e-01    2.718369e-01
    5.230012e+00    8.745896e+02    2.016222e+00    9.115633e+07    1.841087e-08    9.307265e-13    1.656723e-08    2.555386e-09    1.090000e+00    7.269579e-01    2.789259e-01
    5.096056e+00    8.678446e+02    2.123043e+00    9.344556e+07    1.842699e-08    9.679350e-13    1.660182e-08    2.558323e-09    1.100000e+00    7.269579e-01    2.860253e-01
    4.968358e+00    8.611168e+02    2.232601e+00    9.572671e+07    1.844213e-08    1.005992e-12    1.663505e-08    2.561097e-09    1.110000e+00    7.269579e-01    2.931345e-01
    4.846514e+00    8.544097e+02    2.344886e+00    9.799984e+07    1.845636e-08    1.044916e-12    1.666702e-08    2.563728e-09    1.120000e+00    7.269579e-01    3.002531e-01
    4.730158e+00    8.477267e+02    2.459888e+00    1.002649e+08    1.846980e-08    1.084727e-12    1.669785e-08    2.566229e-09    1.130000e+00    7.269579e-01    3.073806e-01
    4.618949e+00    8.410710e+02    2.577596e+00    1.025221e+08    1.848249e-08    1.125444e-12    1.672768e-08    2.568613e-09    1.140000e+00    7.269579e-01    3.145167e-01
    4.512568e+00    8.344440e+02    2.698001e+00    1.047714e+08    1.849453e-08    1.167088e-12    1.675656e-08    2.570893e-09    1.150000e+00    7.269579e-01    3.216611e-01
    4.410723e+00    8.278476e+02    2.821091e+00    1.070128e+08    1.850594e-08    1.209681e-12    1.678457e-08    2.573077e-09    1.160000e+00    7.269579e-01    3.288135e-01
    4.313140e+00    8.212820e+02    2.946858e+00    1.092463e+08    1.851681e-08    1.253243e-12    1.681181e-08    2.575176e-09    1.170000e+00    7.269579e-01    3.359738e-01
    4.219568e+00    8.147487e+02    3.075292e+00    1.114721e+08    1.852715e-08    1.297798e-12    1.683832e-08    2.577195e-09    1.180000e+00    7.269579e-01    3.431417e-01
    4.129775e+00    8.082475e+02    3.206383e+00    1.136900e+08    1.853701e-08    1.343371e-12    1.686414e-08    2.579142e-09    1.190000e+00    7.269579e-01    3.503171e-01
    4.043540e+00    8.017785e+02    3.340122e+00    1.159001e+08    1.854643e-08    1.389983e-12    1.688936e-08    2.581022e-09    1.200000e+00    7.269579e-01    3.575000e-01
    3.960662e+00    7.953415e+02    3.476498e+00    1.181024e+08    1.855543e-08    1.437660e-12    1.691398e-08    2.582841e-09    1.210000e+00    7.269579e-01    3.646901e-01
    3.880957e+00    7.889367e+02    3.615503e+00    1.202970e+08    1.856406e-08    1.486427e-12    1.693806e-08    2.584603e-09    1.220000e+00    7.269579e-01    3.718873e-01
    3.804246e+00    7.825636e+02    3.757127e+00    1.224837e+08    1.857232e-08    1.536311e-12    1.696162e-08    2.586311e-09    1.230000e+00    7.269579e-01    3.790917e-01
    3.730368e+00    7.762214e+02    3.901361e+00    1.246627e+08    1.858024e-08    1.587338e-12    1.698471e-08    2.587969e-09    1.240000e+00    7.269579e-01    3.863032e-01
    3.659172e+00    7.699099e+02    4.048194e+00    1.268339e+08    1.858785e-08    1.639537e-12    1.700735e-08    2.589582e-09    1.250000e+00    7.269579e-01    3.935217e-01
    3.590516e+00    7.636282e+02    4.197618e+00    1.289972e+08    1.859515e-08    1.692936e-12    1.702956e-08    2.591150e-09    1.260000e+00    7.269579e-01    4.007471e-01
    3.524268e+00    7.573759e+02    4.349623e+00    1.311526e+08    1.860218e-08    1.747563e-12    1.705137e-08    2.592677e-09    1.270000e+00    7.269579e-01    4.079795e-01
    3.460304e+00    7.511523e+02    4.504200e+00    1.333001e+08    1.860893e-08    1.803450e-12    1.707279e-08    2.594166e-09    1.280000e+00    7.269579e-01    4.152189e-01
    3.398511e+00    7.449569e+02    4.661338e+00    1.354398e+08    1.861543e-08    1.860628e-12    1.709385e-08    2.595618e-09    1.290000e+00    7.269579e-01    4.224651e-01
    3.338778e+00    7.387886e+02    4.821028e+00    1.375715e+08    1.862169e-08    1.919127e-12    1.711456e-08    2.597035e-09    1.300000e+00    7.269579e-01    4.297183e-01
    3.281007e+00    7.326471e+02    4.983262e+00    1.396952e+08    1.862772e-08    1.978981e-12    1.713495e-08    2.598420e-09    1.310000e+00    7.269579e-01    4.369784e-01
    3.225103e+00    7.265316e+02    5.148025e+00    1.418108e+08    1.863353e-08    2.040225e-12    1.715502e-08    2.599772e-09    1.320000e+00    7.269579e-01    4.442455e-01
    3.170974e+00    7.204413e+02    5.315315e+00    1.439184e+08    1.863912e-08    2.102892e-12    1.717479e-08    2.601095e-09    1.330000e+00    7.269579e-01    4.515194e-01
    3.118537e+00    7.143758e+02    5.485120e+00    1.460179e+08    1.864452e-08    2.167019e-12    1.719427e-08    2.602389e-09    1.340000e+00    7.269579e-01    4.588004e-01
    3.067718e+00    7.083343e+02    5.657425e+00    1.481091e+08    1.864973e-08    2.232642e-12    1.721347e-08    2.603656e-09    1.350000e+00    7.269579e-01    4.660883e-01
    3.018440e+00    7.023162e+02    5.832225e+00    1.501922e+08    1.865476e-08    2.299798e-12    1.723242e-08    2.604897e-09    1.360000e+00    7.269579e-01    4.733832e-01
    2.970636e+00    6.963209e+02    6.009505e+00    1.522670e+08    1.865961e-08    2.368527e-12    1.725110e-08    2.606113e-09    1.370000e+00    7.269579e-01    4.806851e-01
    2.924238e+00    6.903481e+02    6.189260e+00    1.543335e+08    1.866429e-08    2.438870e-12    1.726954e-08    2.607304e-09    1.380000e+00    7.269579e-01    4.879940e-01
    2.879184e+00    6.843967e+02    6.371480e+00    1.563916e+08    1.866880e-08    2.510866e-12    1.728775e-08    2.608473e-09    1.390000e+00    7.269579e-01    4.953100e-01
    2.835420e+00    6.784668e+02    6.556150e+00    1.584414e+08    1.867316e-08    2.584559e-12    1.730574e-08    2.609619e-09    1.400000e+00    7.269579e-01    5.026331e-01
    2.792887e+00    6.725574e+02    6.743265e+00    1.604826e+08    1.867738e-08    2.659993e-12    1.732350e-08    2.610744e-09    1.410000e+00    7.269579e-01    5.099633e-01
    2.751537e+00    6.666682e+02    6.932810e+00    1.625153e+08    1.868144e-08    2.737211e-12    1.734105e-08    2.611849e-09    1.420000e+00    7.269579e-01    5.173006e-01
    2.711316e+00    6.607985e+02    7.124780e+00    1.645395e+08    1.868536e-08    2.816261e-12    1.735840e-08    2.612933e-09    1.430000e+00    7.269579e-01    5.246451e-01
    2.672182e+00    6.549482e+02    7.319160e+00    1.665550e+08    1.868916e-08    2.897190e-12    1.737555e-08    2.614000e-09    1.440000e+00    7.269579e-01    5.319969e-01
    2.634093e+00    6.491168e+02    7.515935e+00    1.685618e+08    1.869283e-08    2.980047e-12    1.739252e-08    2.615047e-09    1.450000e+00    7.269579e-01    5.393559e-01
    2.597002e+00    6.433038e+02    7.715105e+00    1.705600e+08    1.869636e-08    3.064883e-12    1.740930e-08    2.616077e-09    1.460000e+00    7.269579e-01    5.467221e-01
    2.560872e+00    6.375088e+02    7.916655e+00    1.725493e+08    1.869978e-08    3.151749e-12    1.742590e-08    2.617089e-09    1.470000e+00    7.269579e-01    5.540957e-01
    2.525666e+00    6.317316e+02    8.120575e+00    1.745298e+08    1.870308e-08    3.240699e-12    1.744234e-08    2.618085e-09    1.480000e+00    7.269579e-01    5.614766e-01
    2.491349e+00    6.259715e+02    8.326850e+00    1.765014e+08    1.870627e-08    3.331789e-12    1.745861e-08    2.619065e-09    1.490000e+00    7.269579e-01    5.688650e-01
    2.457887e+00    6.202285e+02    8.535475e+00    1.784642e+08    1.870935e-08    3.425076e-12    1.747471e-08    2.620030e-09    1.500000e+00    7.269579e-01    5.762607e-01
    2.425249e+00    6.145021e+02    8.746430e+00    1.804179e+08    1.871232e-08    3.520616e-12    1.749066e-08    2.620980e-09    1.510000e+00    7.269579e-01    5.836639e-01
    2.393403e+00    6.087923e+02    8.959715e+00    1.823626e+08    1.871519e-08    3.618471e-12    1.750646e-08    2.621915e-09    1.520000e+00    7.269579e-01    5.910746e-01
    2.362321e+00    6.030982e+02    9.175310e+00    1.842983e+08    1.871796e-08    3.718704e-12    1.752211e-08    2.622835e-09    1.530000e+00    7.269579e-01    5.984929e-01
    2.331975e+00    5.974202e+02    9.393210e+00    1.862248e+08    1.872064e-08    3.821377e-12    1.753763e-08    2.623744e-09    1.540000e+00    7.269579e-01    6.059187e-01
    2.302340e+00    5.917576e+02    9.613400e+00    1.881421e+08    1.872322e-08    3.926558e-12    1.755300e-08    2.624638e-09    1.550000e+00    7.269579e-01    6.133521e-01
    2.273389e+00    5.861104e+02    9.835875e+00    1.900503e+08    1.872571e-08    4.034314e-12    1.756823e-08    2.625520e-09    1.560000e+00    7.269579e-01    6.207932e-01
    2.245100e+00    5.804782e+02    1.006062e+01    1.919492e+08    1.872812e-08    4.144715e-12    1.758334e-08    2.626390e-09    1.570000e+00    7.269579e-01    6.282420e-01
