# GF180MCU-D nfet_03v3 gm/ID Processed Lookup Table
# Corner: typical
# Temperature: -40C
# W = 2.0 um
# L = 4 um (4000 nm)
# Columns: gm/id [1/V]  gm/gds [V/V]  id/W [A/m]  ft [Hz]  Cgg/W [F/m]  Cgd/W [F/m]  Cgs/W [F/m]  Cdb/W [F/m]  vgs [V]  vth [V]  vdsat [V]
# vdsat = BSIM saturation voltage (|VDS|_sat, positive); use for headroom / saturation / cascode-bias calculations
#           gm/id          gm/gds            id/W              ft           Cgg/W           Cgd/W           Cgs/W           Cdb/W             vgs             vth           vdsat
    3.420328e+01    6.800746e+02    6.087055e-05    6.565195e+04    5.047165e-09    1.110618e-15    1.206305e-10    3.014285e-11    4.900000e-01    7.309455e-01    2.888841e-02
    3.415572e+01    6.767991e+02    8.567955e-05    9.222110e+04    5.050455e-09    1.311305e-15    1.487361e-10    3.539616e-11    5.000000e-01    7.309455e-01    2.890654e-02
    3.403565e+01    6.730449e+02    1.204979e-04    1.290620e+05    5.057495e-09    1.547818e-15    1.819258e-10    4.156405e-11    5.100000e-01    7.309455e-01    2.893194e-02
    3.385080e+01    6.687845e+02    1.692068e-04    1.798411e+05    5.068950e-09    1.826568e-15    2.211251e-10    4.880466e-11    5.200000e-01    7.309455e-01    2.896741e-02
    3.360562e+01    6.640090e+02    2.370943e-04    2.493521e+05    5.085575e-09    2.155103e-15    2.674125e-10    5.730015e-11    5.300000e-01    7.309455e-01    2.901672e-02
    3.330251e+01    6.587379e+02    3.313088e-04    3.437617e+05    5.108255e-09    2.542287e-15    3.220320e-10    6.725870e-11    5.400000e-01    7.309455e-01    2.908490e-02
    3.294279e+01    6.530281e+02    4.614293e-04    4.708598e+05    5.138000e-09    2.998498e-15    3.864044e-10    7.891555e-11    5.500000e-01    7.309455e-01    2.917858e-02
    3.252769e+01    6.469880e+02    6.401685e-04    6.402907e+05    5.175955e-09    3.535833e-15    4.621333e-10    9.253365e-11    5.600000e-01    7.309455e-01    2.930639e-02
    3.205897e+01    6.407850e+02    8.842265e-04    8.637348e+05    5.223395e-09    4.168327e-15    5.510055e-10    1.084029e-10    5.700000e-01    7.309455e-01    2.947930e-02
    3.153951e+01    6.346520e+02    1.215306e-03    1.155009e+06    5.281720e-09    4.912173e-15    6.549805e-10    1.268378e-10    5.800000e-01    7.309455e-01    2.971098e-02
    3.097352e+01    6.288857e+02    1.661303e-03    1.530056e+06    5.352445e-09    5.785925e-15    7.761725e-10    1.481728e-10    5.900000e-01    7.309455e-01    3.001806e-02
    3.036639e+01    6.238367e+02    2.257680e-03    2.006792e+06    5.437175e-09    6.810700e-15    9.168085e-10    1.727546e-10    6.000000e-01    7.309455e-01    3.042019e-02
    2.972428e+01    6.198863e+02    3.049026e-03    2.604803e+06    5.537550e-09    8.010285e-15    1.079171e-09    2.009314e-10    6.100000e-01    7.309455e-01    3.093981e-02
    2.905327e+01    6.174128e+02    4.090780e-03    3.344822e+06    5.655205e-09    9.411270e-15    1.265514e-09    2.330373e-10    6.200000e-01    7.309455e-01    3.160163e-02
    2.835861e+01    6.167537e+02    5.451095e-03    4.248001e+06    5.791675e-09    1.104299e-14    1.477951e-09    2.693727e-10    6.300000e-01    7.309455e-01    3.243179e-02
    2.764394e+01    6.181660e+02    7.212740e-03    5.334915e+06    5.948300e-09    1.293738e-14    1.718306e-09    3.101803e-10    6.400000e-01    7.309455e-01    3.345668e-02
    2.691143e+01    6.217989e+02    9.474875e-03    6.624381e+06    6.126115e-09    1.512875e-14    1.987954e-09    3.556173e-10    6.500000e-01    7.309455e-01    3.470166e-02
    2.616192e+01    6.276783e+02    1.235459e-02    8.132253e+06    6.325680e-09    1.765322e-14    2.287628e-09    4.057267e-10    6.600000e-01    7.309455e-01    3.618977e-02
    2.539588e+01    6.357119e+02    1.598792e-02    9.870361e+06    6.547000e-09    2.054815e-14    2.617233e-09    4.604088e-10    6.700000e-01    7.309455e-01    3.794070e-02
    2.461423e+01    6.457046e+02    2.053026e-02    1.184603e+07    6.789345e-09    2.385122e-14    2.975686e-09    5.193990e-10    6.800000e-01    7.309455e-01    3.997005e-02
    2.381902e+01    6.573873e+02    2.615601e-02    1.406213e+07    7.051220e-09    2.759948e-14    3.360786e-09    5.822530e-10    6.900000e-01    7.309455e-01    4.228902e-02
    2.301348e+01    6.704411e+02    3.305759e-02    1.651782e+07    7.330285e-09    3.182819e-14    3.769180e-09    6.483480e-10    7.000000e-01    7.309455e-01    4.490448e-02
    2.220184e+01    6.845203e+02    4.144359e-02    1.920956e+07    7.623405e-09    3.656972e-14    4.196417e-09    7.168980e-10    7.100000e-01    7.309455e-01    4.781927e-02
    2.138891e+01    6.992715e+02    5.153640e-02    2.213229e+07    7.926775e-09    4.185246e-14    4.637107e-09    7.869855e-10    7.200000e-01    7.309455e-01    5.103267e-02
    2.057948e+01    7.143433e+02    6.356910e-02    2.528013e+07    8.236095e-09    4.769988e-14    5.085185e-09    8.576100e-10    7.300000e-01    7.309455e-01    5.454084e-02
    1.977805e+01    7.293975e+02    7.778190e-02    2.864698e+07    8.546795e-09    5.412995e-14    5.534255e-09    9.277455e-10    7.400000e-01    7.309455e-01    5.833733e-02
    1.898857e+01    7.441158e+02    9.441800e-02    3.222637e+07    8.854330e-09    6.115475e-14    5.977960e-09    9.963995e-10    7.500000e-01    7.309455e-01    6.241342e-02
    1.821442e+01    7.582086e+02    1.137194e-01    3.601129e+07    9.154430e-09    6.878055e-14    6.410350e-09    1.062672e-09    7.600000e-01    7.309455e-01    6.675848e-02
    1.745845e+01    7.714225e+02    1.359223e-01    3.999374e+07    9.443320e-09    7.700810e-14    6.826210e-09    1.125795e-09    7.700000e-01    7.309455e-01    7.136027e-02
    1.672309e+01    7.835460e+02    1.612530e-01    4.416442e+07    9.717890e-09    8.583320e-14    7.221260e-09    1.185168e-09    7.800000e-01    7.309455e-01    7.620520e-02
    1.601034e+01    7.944147e+02    1.899238e-01    4.851242e+07    9.975790e-09    9.524765e-14    7.592285e-09    1.240369e-09    7.900000e-01    7.309455e-01    8.127869e-02
    1.532189e+01    8.039129e+02    2.221303e-01    5.302530e+07    1.021545e-08    1.052402e-13    7.937180e-09    1.291150e-09    8.000000e-01    7.309455e-01    8.656542e-02
    1.465912e+01    8.119733e+02    2.580486e-01    5.768927e+07    1.043601e-08    1.157972e-13    8.254850e-09    1.337422e-09    8.100000e-01    7.309455e-01    9.204969e-02
    1.402307e+01    8.185729e+02    2.978343e-01    6.248943e+07    1.063730e-08    1.269039e-13    8.545120e-09    1.379234e-09    8.200000e-01    7.309455e-01    9.771565e-02
    1.341451e+01    8.237281e+02    3.416212e-01    6.741035e+07    1.081965e-08    1.385450e-13    8.808545e-09    1.416742e-09    8.300000e-01    7.309455e-01    1.035477e-01
    1.283385e+01    8.274882e+02    3.895224e-01    7.243633e+07    1.098381e-08    1.507054e-13    9.046265e-09    1.450183e-09    8.400000e-01    7.309455e-01    1.095305e-01
    1.228123e+01    8.299265e+02    4.416306e-01    7.755197e+07    1.113085e-08    1.633708e-13    9.259810e-09    1.479846e-09    8.500000e-01    7.309455e-01    1.156497e-01
    1.175649e+01    8.311369e+02    4.980197e-01    8.274263e+07    1.126199e-08    1.765277e-13    9.450975e-09    1.506050e-09    8.600000e-01    7.309455e-01    1.218912e-01
    1.125922e+01    8.312209e+02    5.587465e-01    8.799432e+07    1.137860e-08    1.901644e-13    9.621690e-09    1.529125e-09    8.700000e-01    7.309455e-01    1.282424e-01
    1.078877e+01    8.302879e+02    6.238525e-01    9.329437e+07    1.148203e-08    2.042707e-13    9.773900e-09    1.549398e-09    8.800000e-01    7.309455e-01    1.346912e-01
    1.034433e+01    8.284495e+02    6.933660e-01    9.863148e+07    1.157363e-08    2.188378e-13    9.909525e-09    1.567185e-09    8.900000e-01    7.309455e-01    1.412268e-01
    9.924906e+00    8.258114e+02    7.673050e-01    1.039953e+08    1.165470e-08    2.338588e-13    1.003040e-08    1.582780e-09    9.000000e-01    7.309455e-01    1.478392e-01
    9.529453e+00    8.224773e+02    8.456760e-01    1.093771e+08    1.172643e-08    2.493283e-13    1.013821e-08    1.596454e-09    9.100000e-01    7.309455e-01    1.545196e-01
    9.156800e+00    8.185417e+02    9.284805e-01    1.147692e+08    1.178994e-08    2.652425e-13    1.023452e-08    1.608452e-09    9.200000e-01    7.309455e-01    1.612599e-01
    8.805768e+00    8.140924e+02    1.015712e+00    1.201650e+08    1.184622e-08    2.815992e-13    1.032075e-08    1.618993e-09    9.300000e-01    7.309455e-01    1.680530e-01
    8.475151e+00    8.092078e+02    1.107359e+00    1.255591e+08    1.189618e-08    2.983975e-13    1.039815e-08    1.628272e-09    9.400000e-01    7.309455e-01    1.748926e-01
    8.163747e+00    8.039583e+02    1.203407e+00    1.309470e+08    1.194062e-08    3.156378e-13    1.046785e-08    1.636459e-09    9.500000e-01    7.309455e-01    1.817731e-01
    7.870388e+00    7.984065e+02    1.303839e+00    1.363248e+08    1.198023e-08    3.333216e-13    1.053084e-08    1.643705e-09    9.600000e-01    7.309455e-01    1.886897e-01
    7.593931e+00    7.926060e+02    1.408634e+00    1.416896e+08    1.201564e-08    3.514516e-13    1.058798e-08    1.650138e-09    9.700000e-01    7.309455e-01    1.956380e-01
    7.333280e+00    7.866046e+02    1.517773e+00    1.470388e+08    1.204739e-08    3.700316e-13    1.064003e-08    1.655871e-09    9.800000e-01    7.309455e-01    2.026143e-01
    7.087400e+00    7.804430e+02    1.631232e+00    1.523706e+08    1.207596e-08    3.890661e-13    1.068765e-08    1.661000e-09    9.900000e-01    7.309455e-01    2.096153e-01
    6.855300e+00    7.741564e+02    1.748989e+00    1.576834e+08    1.210173e-08    4.085606e-13    1.073139e-08    1.665608e-09    1.000000e+00    7.309455e-01    2.166381e-01
    6.636050e+00    7.677741e+02    1.871020e+00    1.629760e+08    1.212508e-08    4.285213e-13    1.077176e-08    1.669768e-09    1.010000e+00    7.309455e-01    2.236803e-01
    6.428782e+00    7.613219e+02    1.997305e+00    1.682476e+08    1.214631e-08    4.489552e-13    1.080918e-08    1.673539e-09    1.020000e+00    7.309455e-01    2.307398e-01
    6.232677e+00    7.548209e+02    2.127818e+00    1.734974e+08    1.216568e-08    4.698698e-13    1.084402e-08    1.676974e-09    1.030000e+00    7.309455e-01    2.378145e-01
    6.046980e+00    7.482893e+02    2.262537e+00    1.787251e+08    1.218341e-08    4.912734e-13    1.087660e-08    1.680118e-09    1.040000e+00    7.309455e-01    2.449030e-01
    5.870982e+00    7.417417e+02    2.401441e+00    1.839303e+08    1.219971e-08    5.131750e-13    1.090718e-08    1.683007e-09    1.050000e+00    7.309455e-01    2.520037e-01
    5.704029e+00    7.351908e+02    2.544506e+00    1.891128e+08    1.221475e-08    5.355835e-13    1.093600e-08    1.685677e-09    1.060000e+00    7.309455e-01    2.591156e-01
    5.545513e+00    7.286472e+02    2.691712e+00    1.942726e+08    1.222866e-08    5.585095e-13    1.096326e-08    1.688154e-09    1.070000e+00    7.309455e-01    2.662375e-01
    5.394870e+00    7.221187e+02    2.843037e+00    1.994096e+08    1.224158e-08    5.819630e-13    1.098915e-08    1.690462e-09    1.080000e+00    7.309455e-01    2.733686e-01
    5.251579e+00    7.156126e+02    2.998461e+00    2.045240e+08    1.225362e-08    6.059545e-13    1.101381e-08    1.692621e-09    1.090000e+00    7.309455e-01    2.805081e-01
    5.115157e+00    7.091344e+02    3.157964e+00    2.096155e+08    1.226486e-08    6.304960e-13    1.103736e-08    1.694649e-09    1.100000e+00    7.309455e-01    2.876552e-01
    4.985159e+00    7.026885e+02    3.321524e+00    2.146845e+08    1.227541e-08    6.555995e-13    1.105993e-08    1.696561e-09    1.110000e+00    7.309455e-01    2.948095e-01
    4.861173e+00    6.962784e+02    3.489123e+00    2.197310e+08    1.228531e-08    6.812765e-13    1.108162e-08    1.698370e-09    1.120000e+00    7.309455e-01    3.019704e-01
    4.742814e+00    6.899067e+02    3.660742e+00    2.247551e+08    1.229464e-08    7.075400e-13    1.110250e-08    1.700087e-09    1.130000e+00    7.309455e-01    3.091375e-01
    4.629734e+00    6.835757e+02    3.836361e+00    2.297571e+08    1.230345e-08    7.344035e-13    1.112265e-08    1.701721e-09    1.140000e+00    7.309455e-01    3.163105e-01
    4.521602e+00    6.772867e+02    4.015962e+00    2.347368e+08    1.231178e-08    7.618805e-13    1.114215e-08    1.703281e-09    1.150000e+00    7.309455e-01    3.234890e-01
    4.418117e+00    6.710408e+02    4.199527e+00    2.396945e+08    1.231969e-08    7.899850e-13    1.116103e-08    1.704774e-09    1.160000e+00    7.309455e-01    3.306728e-01
    4.318999e+00    6.648385e+02    4.387036e+00    2.446303e+08    1.232719e-08    8.187310e-13    1.117937e-08    1.706205e-09    1.170000e+00    7.309455e-01    3.378616e-01
    4.223987e+00    6.586805e+02    4.578472e+00    2.495442e+08    1.233434e-08    8.481345e-13    1.119719e-08    1.707581e-09    1.180000e+00    7.309455e-01    3.450553e-01
    4.132840e+00    6.525665e+02    4.773818e+00    2.544364e+08    1.234114e-08    8.782100e-13    1.121453e-08    1.708907e-09    1.190000e+00    7.309455e-01    3.522537e-01
    4.045337e+00    6.464969e+02    4.973055e+00    2.593070e+08    1.234764e-08    9.089735e-13    1.123145e-08    1.710185e-09    1.200000e+00    7.309455e-01    3.594567e-01
    3.961267e+00    6.404710e+02    5.176165e+00    2.641558e+08    1.235384e-08    9.404420e-13    1.124795e-08    1.711421e-09    1.210000e+00    7.309455e-01    3.666642e-01
    3.880439e+00    6.344886e+02    5.383130e+00    2.689831e+08    1.235978e-08    9.726315e-13    1.126407e-08    1.712617e-09    1.220000e+00    7.309455e-01    3.738760e-01
    3.802672e+00    6.285493e+02    5.593935e+00    2.737889e+08    1.236547e-08    1.005560e-12    1.127984e-08    1.713775e-09    1.230000e+00    7.309455e-01    3.810922e-01
    3.727797e+00    6.226524e+02    5.808565e+00    2.785731e+08    1.237092e-08    1.039245e-12    1.129528e-08    1.714899e-09    1.240000e+00    7.309455e-01    3.883126e-01
    3.655663e+00    6.167971e+02    6.026995e+00    2.833358e+08    1.237615e-08    1.073705e-12    1.131040e-08    1.715992e-09    1.250000e+00    7.309455e-01    3.955372e-01
    3.586123e+00    6.109832e+02    6.249210e+00    2.880771e+08    1.238117e-08    1.108959e-12    1.132523e-08    1.717053e-09    1.260000e+00    7.309455e-01    4.027660e-01
    3.519040e+00    6.052095e+02    6.475195e+00    2.927968e+08    1.238600e-08    1.145026e-12    1.133977e-08    1.718086e-09    1.270000e+00    7.309455e-01    4.099990e-01
    3.454287e+00    5.994755e+02    6.704935e+00    2.974949e+08    1.239064e-08    1.181926e-12    1.135406e-08    1.719093e-09    1.280000e+00    7.309455e-01    4.172361e-01
    3.391749e+00    5.937806e+02    6.938405e+00    3.021715e+08    1.239510e-08    1.219680e-12    1.136809e-08    1.720075e-09    1.290000e+00    7.309455e-01    4.244774e-01
    3.331312e+00    5.881238e+02    7.175595e+00    3.068265e+08    1.239940e-08    1.258309e-12    1.138188e-08    1.721032e-09    1.300000e+00    7.309455e-01    4.317228e-01
    3.272874e+00    5.825046e+02    7.416485e+00    3.114598e+08    1.240354e-08    1.297833e-12    1.139545e-08    1.721967e-09    1.310000e+00    7.309455e-01    4.389724e-01
    3.216338e+00    5.769221e+02    7.661055e+00    3.160715e+08    1.240752e-08    1.338278e-12    1.140880e-08    1.722880e-09    1.320000e+00    7.309455e-01    4.462261e-01
    3.161612e+00    5.713757e+02    7.909290e+00    3.206614e+08    1.241136e-08    1.379664e-12    1.142194e-08    1.723773e-09    1.330000e+00    7.309455e-01    4.534840e-01
    3.108612e+00    5.658646e+02    8.161170e+00    3.252295e+08    1.241507e-08    1.422016e-12    1.143488e-08    1.724646e-09    1.340000e+00    7.309455e-01    4.607461e-01
    3.057258e+00    5.603882e+02    8.416680e+00    3.297759e+08    1.241864e-08    1.465358e-12    1.144765e-08    1.725500e-09    1.350000e+00    7.309455e-01    4.680125e-01
    3.007471e+00    5.549459e+02    8.675805e+00    3.343004e+08    1.242209e-08    1.509716e-12    1.146022e-08    1.726336e-09    1.360000e+00    7.309455e-01    4.752830e-01
    2.959185e+00    5.495369e+02    8.938520e+00    3.388027e+08    1.242542e-08    1.555114e-12    1.147262e-08    1.727156e-09    1.370000e+00    7.309455e-01    4.825579e-01
    2.912330e+00    5.441607e+02    9.204810e+00    3.432831e+08    1.242863e-08    1.601579e-12    1.148486e-08    1.727958e-09    1.380000e+00    7.309455e-01    4.898371e-01
    2.866844e+00    5.388167e+02    9.474660e+00    3.477415e+08    1.243172e-08    1.649139e-12    1.149692e-08    1.728745e-09    1.390000e+00    7.309455e-01    4.971206e-01
    2.822666e+00    5.335041e+02    9.748055e+00    3.521776e+08    1.243472e-08    1.697822e-12    1.150884e-08    1.729517e-09    1.400000e+00    7.309455e-01    5.044085e-01
    2.779743e+00    5.282231e+02    1.002497e+01    3.565916e+08    1.243760e-08    1.747657e-12    1.152061e-08    1.730275e-09    1.410000e+00    7.309455e-01    5.117008e-01
    2.738020e+00    5.229719e+02    1.030539e+01    3.609832e+08    1.244039e-08    1.798673e-12    1.153224e-08    1.731018e-09    1.420000e+00    7.309455e-01    5.189975e-01
    2.697449e+00    5.177508e+02    1.058929e+01    3.653524e+08    1.244308e-08    1.850902e-12    1.154372e-08    1.731748e-09    1.430000e+00    7.309455e-01    5.262988e-01
    2.657979e+00    5.125593e+02    1.087666e+01    3.696991e+08    1.244569e-08    1.904373e-12    1.155508e-08    1.732465e-09    1.440000e+00    7.309455e-01    5.336045e-01
    2.619570e+00    5.073969e+02    1.116748e+01    3.740234e+08    1.244820e-08    1.959122e-12    1.156630e-08    1.733169e-09    1.450000e+00    7.309455e-01    5.409149e-01
    2.582177e+00    5.022628e+02    1.146173e+01    3.783249e+08    1.245063e-08    2.015180e-12    1.157740e-08    1.733862e-09    1.460000e+00    7.309455e-01    5.482299e-01
    2.545759e+00    4.971572e+02    1.175940e+01    3.826041e+08    1.245297e-08    2.072583e-12    1.158837e-08    1.734542e-09    1.470000e+00    7.309455e-01    5.555495e-01
    2.510280e+00    4.920789e+02    1.206046e+01    3.868602e+08    1.245524e-08    2.131365e-12    1.159923e-08    1.735212e-09    1.480000e+00    7.309455e-01    5.628738e-01
    2.475703e+00    4.870281e+02    1.236490e+01    3.910937e+08    1.245743e-08    2.191563e-12    1.160998e-08    1.735870e-09    1.490000e+00    7.309455e-01    5.702029e-01
    2.441994e+00    4.820040e+02    1.267269e+01    3.953043e+08    1.245954e-08    2.253215e-12    1.162061e-08    1.736519e-09    1.500000e+00    7.309455e-01    5.775368e-01
    2.409121e+00    4.770063e+02    1.298382e+01    3.994920e+08    1.246158e-08    2.316360e-12    1.163115e-08    1.737156e-09    1.510000e+00    7.309455e-01    5.848755e-01
    2.377051e+00    4.720347e+02    1.329828e+01    4.036567e+08    1.246355e-08    2.381038e-12    1.164158e-08    1.737785e-09    1.520000e+00    7.309455e-01    5.922191e-01
    2.345756e+00    4.670893e+02    1.361603e+01    4.077983e+08    1.246546e-08    2.447289e-12    1.165190e-08    1.738403e-09    1.530000e+00    7.309455e-01    5.995676e-01
    2.315209e+00    4.621689e+02    1.393707e+01    4.119170e+08    1.246729e-08    2.515156e-12    1.166213e-08    1.739013e-09    1.540000e+00    7.309455e-01    6.069211e-01
    2.285383e+00    4.572739e+02    1.426136e+01    4.160124e+08    1.246907e-08    2.584685e-12    1.167227e-08    1.739613e-09    1.550000e+00    7.309455e-01    6.142796e-01
    2.256250e+00    4.524037e+02    1.458891e+01    4.200845e+08    1.247078e-08    2.655917e-12    1.168232e-08    1.740205e-09    1.560000e+00    7.309455e-01    6.216432e-01
    2.227788e+00    4.475580e+02    1.491968e+01    4.241333e+08    1.247244e-08    2.728901e-12    1.169227e-08    1.740789e-09    1.570000e+00    7.309455e-01    6.290120e-01
