# GF180MCU-D nfet_03v3 gm/ID Processed Lookup Table
# Corner: typical
# Temperature: -40C
# W = 2.0 um
# L = 2 um (2000 nm)
# Columns: gm/id [1/V]  gm/gds [V/V]  id/W [A/m]  ft [Hz]  Cgg/W [F/m]  Cgd/W [F/m]  Cgs/W [F/m]  Cdb/W [F/m]  vgs [V]  vth [V]  vdsat [V]
# vdsat = BSIM saturation voltage (|VDS|_sat, positive); use for headroom / saturation / cascode-bias calculations
#           gm/id          gm/gds            id/W              ft           Cgg/W           Cgd/W           Cgs/W           Cdb/W             vgs             vth           vdsat
    3.455505e+01    4.963884e+02    8.000260e-05    1.764657e+05    2.493306e-09    3.882521e-16    3.550480e-11    1.035121e-11    4.900000e-01    7.426308e-01    3.094533e-02
    3.451954e+01    4.945242e+02    1.130120e-04    2.491696e+05    2.491807e-09    4.593305e-16    4.519681e-11    1.217037e-11    5.000000e-01    7.426308e-01    3.095704e-02
    3.442728e+01    4.923646e+02    1.595381e-04    3.508350e+05    2.491636e-09    5.431905e-16    5.664200e-11    1.430730e-11    5.100000e-01    7.426308e-01    3.097353e-02
    3.428369e+01    4.898794e+02    2.249528e-04    4.923495e+05    2.493019e-09    6.421275e-16    7.016365e-11    1.681843e-11    5.200000e-01    7.426308e-01    3.099668e-02
    3.409135e+01    4.870439e+02    3.166562e-04    6.882841e+05    2.496230e-09    7.588545e-16    8.614575e-11    1.976984e-11    5.300000e-01    7.426308e-01    3.102909e-02
    3.385087e+01    4.838438e+02    4.447794e-04    9.578965e+05    2.501590e-09    8.965790e-16    1.050408e-10    2.323849e-11    5.400000e-01    7.426308e-01    3.107427e-02
    3.356169e+01    4.802805e+02    6.230910e-04    1.326272e+06    2.509475e-09    1.059083e-15    1.273777e-10    2.731334e-11    5.500000e-01    7.426308e-01    3.113696e-02
    3.322277e+01    4.763789e+02    8.701515e-04    1.825554e+06    2.520323e-09    1.250818e-15    1.537691e-10    3.209630e-11    5.600000e-01    7.426308e-01    3.122345e-02
    3.283324e+01    4.721948e+02    1.210756e-03    2.496176e+06    2.534635e-09    1.477004e-15    1.849167e-10    3.770291e-11    5.700000e-01    7.426308e-01    3.134200e-02
    3.239295e+01    4.678232e+02    1.677708e-03    3.387971e+06    2.552979e-09    1.743740e-15    2.216153e-10    4.426280e-11    5.800000e-01    7.426308e-01    3.150326e-02
    3.190295e+01    4.634036e+02    2.313956e-03    4.561012e+06    2.575994e-09    2.058119e-15    2.647536e-10    5.191930e-11    5.900000e-01    7.426308e-01    3.172069e-02
    3.136569e+01    4.591225e+02    3.175133e-03    6.086008e+06    2.604380e-09    2.428339e-15    3.153102e-10    6.082845e-11    6.000000e-01    7.426308e-01    3.201092e-02
    3.078511e+01    4.552091e+02    4.332511e-03    8.044091e+06    2.638903e-09    2.863820e-15    3.743439e-10    7.115695e-11    6.100000e-01    7.426308e-01    3.239395e-02
    3.016618e+01    4.519241e+02    5.876390e-03    1.052583e+07    2.680371e-09    3.375303e-15    4.429758e-10    8.307840e-11    6.200000e-01    7.426308e-01    3.289313e-02
    2.951432e+01    4.495390e+02    7.919905e-03    1.362921e+07    2.729620e-09    3.974925e-15    5.223610e-10    9.676795e-11    6.300000e-01    7.426308e-01    3.353474e-02
    2.883445e+01    4.483078e+02    1.060318e-02    1.745643e+07    2.787485e-09    4.676277e-15    6.136460e-10    1.123950e-10    6.400000e-01    7.426308e-01    3.434727e-02
    2.813032e+01    4.484400e+02    1.409761e-02    2.210910e+07    2.854757e-09    5.494395e-15    7.179145e-10    1.301134e-10    6.500000e-01    7.426308e-01    3.536021e-02
    2.740401e+01    4.500714e+02    1.861007e-02    2.768205e+07    2.932135e-09    6.445710e-15    8.361145e-10    1.500491e-10    6.600000e-01    7.426308e-01    3.660267e-02
    2.665621e+01    4.532483e+02    2.438649e-02    3.425606e+07    3.020164e-09    7.547885e-15    9.689740e-10    1.722868e-10    6.700000e-01    7.426308e-01    3.810181e-02
    2.588688e+01    4.579236e+02    3.171437e-02    4.189069e+07    3.119166e-09    8.819605e-15    1.116905e-09    1.968549e-10    6.800000e-01    7.426308e-01    3.988137e-02
    2.509633e+01    4.639666e+02    4.092373e-02    5.061916e+07    3.229168e-09    1.028023e-14    1.279906e-09    2.237109e-10    6.900000e-01    7.426308e-01    4.196062e-02
    2.428606e+01    4.711808e+02    5.238625e-02    6.044630e+07    3.349845e-09    1.194935e-14    1.457480e-09    2.527298e-10    7.000000e-01    7.426308e-01    4.435365e-02
    2.345920e+01    4.793266e+02    6.651240e-02    7.135077e+07    3.480466e-09    1.384628e-14    1.648564e-09    2.836963e-10    7.100000e-01    7.426308e-01    4.706918e-02
    2.262048e+01    4.881440e+02    8.374695e-02    8.329084e+07    3.619876e-09    1.598949e-14    1.851505e-09    3.163042e-10    7.200000e-01    7.426308e-01    5.011084e-02
    2.177564e+01    4.973684e+02    1.045628e-01    9.621200e+07    3.766509e-09    1.839597e-14    2.064086e-09    3.501636e-10    7.300000e-01    7.426308e-01    5.347764e-02
    2.093088e+01    5.067429e+02    1.294536e-01    1.100545e+08    3.918447e-09    2.108070e-14    2.283606e-09    3.848175e-10    7.400000e-01    7.426308e-01    5.716466e-02
    2.009220e+01    5.160266e+02    1.589253e-01    1.247590e+08    4.073512e-09    2.405609e-14    2.507007e-09    4.197649e-10    7.500000e-01    7.426308e-01    6.116364e-02
    1.926503e+01    5.249986e+02    1.934874e-01    1.402702e+08    4.229384e-09    2.733177e-14    2.731052e-09    4.544905e-10    7.600000e-01    7.426308e-01    6.546364e-02
    1.845396e+01    5.334641e+02    2.336433e-01    1.565372e+08    4.383747e-09    3.091426e-14    2.952520e-09    4.884947e-10    7.700000e-01    7.426308e-01    7.005157e-02
    1.766280e+01    5.412555e+02    2.798809e-01    1.735127e+08    4.534419e-09    3.480704e-14    3.168388e-09    5.213235e-10    7.800000e-01    7.426308e-01    7.491260e-02
    1.689461e+01    5.482376e+02    3.326641e-01    1.911513e+08    4.679474e-09    3.901075e-14    3.375998e-09    5.525900e-10    7.900000e-01    7.426308e-01    8.003059e-02
    1.615173e+01    5.543075e+02    3.924250e-01    2.094065e+08    4.817321e-09    4.352344e-14    3.573177e-09    5.819915e-10    8.000000e-01    7.426308e-01    8.538847e-02
    1.543602e+01    5.593977e+02    4.595569e-01    2.282307e+08    4.946760e-09    4.834107e-14    3.758290e-09    6.093145e-10    8.100000e-01    7.426308e-01    9.096856e-02
    1.474883e+01    5.634719e+02    5.344105e-01    2.475729e+08    5.066985e-09    5.345795e-14    3.930267e-09    6.344345e-10    8.200000e-01    7.426308e-01    9.675295e-02
    1.409109e+01    5.665249e+02    6.172910e-01    2.673799e+08    5.177570e-09    5.886720e-14    4.088557e-09    6.573080e-10    8.300000e-01    7.426308e-01    1.027238e-01
    1.346337e+01    5.685772e+02    7.084565e-01    2.875961e+08    5.278420e-09    6.456130e-14    4.233074e-09    6.779600e-10    8.400000e-01    7.426308e-01    1.088636e-01
    1.286586e+01    5.696711e+02    8.081200e-01    3.081651e+08    5.369715e-09    7.053255e-14    4.364106e-09    6.964700e-10    8.500000e-01    7.426308e-01    1.151554e-01
    1.229846e+01    5.698649e+02    9.164505e-01    3.290310e+08    5.451840e-09    7.677330e-14    4.482234e-09    7.129575e-10    8.600000e-01    7.426308e-01    1.215832e-01
    1.176080e+01    5.692288e+02    1.033577e+00    3.501391e+08    5.525340e-09    8.327620e-14    4.588241e-09    7.275685e-10    8.700000e-01    7.426308e-01    1.281317e-01
    1.125223e+01    5.678393e+02    1.159590e+00    3.714379e+08    5.590840e-09    9.003465e-14    4.683038e-09    7.404635e-10    8.800000e-01    7.426308e-01    1.347870e-01
    1.077192e+01    5.657762e+02    1.294552e+00    3.928790e+08    5.649030e-09    9.704260e-14    4.767600e-09    7.518085e-10    8.900000e-01    7.426308e-01    1.415361e-01
    1.031886e+01    5.631190e+02    1.438495e+00    4.144182e+08    5.700610e-09    1.042951e-13    4.842918e-09    7.617675e-10    9.000000e-01    7.426308e-01    1.483671e-01
    9.891933e+00    5.599445e+02    1.591425e+00    4.360162e+08    5.746255e-09    1.117876e-13    4.909958e-09    7.704975e-10    9.100000e-01    7.426308e-01    1.552694e-01
    9.489915e+00    5.563254e+02    1.753334e+00    4.576373e+08    5.786630e-09    1.195170e-13    4.969641e-09    7.781460e-10    9.200000e-01    7.426308e-01    1.622334e-01
    9.111532e+00    5.523289e+02    1.924195e+00    4.792517e+08    5.822330e-09    1.274805e-13    5.022825e-09    7.848480e-10    9.300000e-01    7.426308e-01    1.692505e-01
    8.755491e+00    5.480157e+02    2.103967e+00    5.008323e+08    5.853925e-09    1.356765e-13    5.070290e-09    7.907245e-10    9.400000e-01    7.426308e-01    1.763130e-01
    8.420487e+00    5.434406e+02    2.292602e+00    5.223568e+08    5.881915e-09    1.441041e-13    5.112745e-09    7.958855e-10    9.500000e-01    7.426308e-01    1.834144e-01
    8.105242e+00    5.386522e+02    2.490044e+00    5.438066e+08    5.906750e-09    1.527630e-13    5.150820e-09    8.004265e-10    9.600000e-01    7.426308e-01    1.905486e-01
    7.808513e+00    5.336929e+02    2.696229e+00    5.651657e+08    5.928835e-09    1.616536e-13    5.185080e-09    8.044330e-10    9.700000e-01    7.426308e-01    1.977105e-01
    7.529097e+00    5.285999e+02    2.911092e+00    5.864216e+08    5.948520e-09    1.707770e-13    5.216010e-09    8.079775e-10    9.800000e-01    7.426308e-01    2.048956e-01
    7.265849e+00    5.234050e+02    3.134563e+00    6.075632e+08    5.966120e-09    1.801349e-13    5.244050e-09    8.111245e-10    9.900000e-01    7.426308e-01    2.120999e-01
    7.017680e+00    5.181355e+02    3.366573e+00    6.285829e+08    5.981900e-09    1.897294e-13    5.269575e-09    8.139295e-10    1.000000e+00    7.426308e-01    2.193200e-01
    6.783564e+00    5.128146e+02    3.607050e+00    6.494733e+08    5.996100e-09    1.995632e-13    5.292905e-09    8.164390e-10    1.010000e+00    7.426308e-01    2.265530e-01
    6.562536e+00    5.074618e+02    3.855922e+00    6.702302e+08    6.008915e-09    2.096392e-13    5.314330e-09    8.186950e-10    1.020000e+00    7.426308e-01    2.337962e-01
    6.353699e+00    5.020939e+02    4.113118e+00    6.908490e+08    6.020530e-09    2.199611e-13    5.334085e-09    8.207315e-10    1.030000e+00    7.426308e-01    2.410474e-01
    6.156209e+00    4.967245e+02    4.378567e+00    7.113277e+08    6.031090e-09    2.305327e-13    5.352390e-09    8.225790e-10    1.040000e+00    7.426308e-01    2.483047e-01
    5.969285e+00    4.913648e+02    4.652202e+00    7.316637e+08    6.040730e-09    2.413582e-13    5.369420e-09    8.242625e-10    1.050000e+00    7.426308e-01    2.555664e-01
    5.792202e+00    4.860246e+02    4.933950e+00    7.518557e+08    6.049565e-09    2.524421e-13    5.385330e-09    8.258045e-10    1.060000e+00    7.426308e-01    2.628312e-01
    5.624293e+00    4.807109e+02    5.223745e+00    7.719040e+08    6.057685e-09    2.637894e-13    5.400260e-09    8.272230e-10    1.070000e+00    7.426308e-01    2.700978e-01
    5.464924e+00    4.754308e+02    5.521525e+00    7.918075e+08    6.065180e-09    2.754051e-13    5.414325e-09    8.285340e-10    1.080000e+00    7.426308e-01    2.773651e-01
    5.313529e+00    4.701887e+02    5.827220e+00    8.115660e+08    6.072125e-09    2.872948e-13    5.427625e-09    8.297510e-10    1.090000e+00    7.426308e-01    2.846323e-01
    5.169574e+00    4.649885e+02    6.140765e+00    8.311810e+08    6.078575e-09    2.994641e-13    5.440240e-09    8.308860e-10    1.100000e+00    7.426308e-01    2.918986e-01
    5.032567e+00    4.598339e+02    6.462100e+00    8.506529e+08    6.084585e-09    3.119190e-13    5.452250e-09    8.319485e-10    1.110000e+00    7.426308e-01    2.991633e-01
    4.902054e+00    4.547264e+02    6.791160e+00    8.699821e+08    6.090205e-09    3.246657e-13    5.463720e-09    8.329475e-10    1.120000e+00    7.426308e-01    3.064260e-01
    4.777612e+00    4.496682e+02    7.127890e+00    8.891693e+08    6.095475e-09    3.377108e-13    5.474700e-09    8.338895e-10    1.130000e+00    7.426308e-01    3.136861e-01
    4.658857e+00    4.446606e+02    7.472225e+00    9.082150e+08    6.100435e-09    3.510608e-13    5.485245e-09    8.347815e-10    1.140000e+00    7.426308e-01    3.209432e-01
    4.545428e+00    4.397039e+02    7.824110e+00    9.271217e+08    6.105105e-09    3.647228e-13    5.495395e-09    8.356285e-10    1.150000e+00    7.426308e-01    3.281970e-01
    4.436995e+00    4.347992e+02    8.183485e+00    9.458899e+08    6.109515e-09    3.787041e-13    5.505185e-09    8.364350e-10    1.160000e+00    7.426308e-01    3.354473e-01
    4.333248e+00    4.299460e+02    8.550295e+00    9.645195e+08    6.113695e-09    3.930120e-13    5.514645e-09    8.372055e-10    1.170000e+00    7.426308e-01    3.426938e-01
    4.233910e+00    4.251448e+02    8.924475e+00    9.830133e+08    6.117655e-09    4.076542e-13    5.523810e-09    8.379430e-10    1.180000e+00    7.426308e-01    3.499363e-01
    4.138710e+00    4.203949e+02    9.305980e+00    1.001371e+09    6.121420e-09    4.226388e-13    5.532695e-09    8.386505e-10    1.190000e+00    7.426308e-01    3.571748e-01
    4.047405e+00    4.156962e+02    9.694755e+00    1.019594e+09    6.125005e-09    4.379738e-13    5.541330e-09    8.393310e-10    1.200000e+00    7.426308e-01    3.644090e-01
    3.959773e+00    4.110479e+02    1.009074e+01    1.037682e+09    6.128425e-09    4.536678e-13    5.549735e-09    8.399870e-10    1.210000e+00    7.426308e-01    3.716389e-01
    3.875601e+00    4.064498e+02    1.049387e+01    1.055639e+09    6.131685e-09    4.697295e-13    5.557915e-09    8.406195e-10    1.220000e+00    7.426308e-01    3.788645e-01
    3.794694e+00    4.019008e+02    1.090412e+01    1.073462e+09    6.134805e-09    4.861678e-13    5.565900e-09    8.412310e-10    1.230000e+00    7.426308e-01    3.860857e-01
    3.716872e+00    3.974005e+02    1.132142e+01    1.091155e+09    6.137790e-09    5.029920e-13    5.573690e-09    8.418230e-10    1.240000e+00    7.426308e-01    3.933024e-01
    3.641964e+00    3.929480e+02    1.174571e+01    1.108717e+09    6.140650e-09    5.202115e-13    5.581310e-09    8.423970e-10    1.250000e+00    7.426308e-01    4.005147e-01
    3.569813e+00    3.885422e+02    1.217694e+01    1.126148e+09    6.143395e-09    5.378365e-13    5.588760e-09    8.429535e-10    1.260000e+00    7.426308e-01    4.077226e-01
    3.500274e+00    3.841827e+02    1.261508e+01    1.143451e+09    6.146025e-09    5.558765e-13    5.596055e-09    8.434945e-10    1.270000e+00    7.426308e-01    4.149261e-01
    3.433209e+00    3.798684e+02    1.306005e+01    1.160627e+09    6.148550e-09    5.743425e-13    5.603205e-09    8.440210e-10    1.280000e+00    7.426308e-01    4.221252e-01
    3.368490e+00    3.755987e+02    1.351182e+01    1.177673e+09    6.150980e-09    5.932445e-13    5.610215e-09    8.445330e-10    1.290000e+00    7.426308e-01    4.293199e-01
    3.305998e+00    3.713726e+02    1.397032e+01    1.194592e+09    6.153320e-09    6.125945e-13    5.617090e-09    8.450315e-10    1.300000e+00    7.426308e-01    4.365103e-01
    3.245621e+00    3.671893e+02    1.443552e+01    1.211384e+09    6.155570e-09    6.324030e-13    5.623845e-09    8.455180e-10    1.310000e+00    7.426308e-01    4.436965e-01
    3.187255e+00    3.630482e+02    1.490735e+01    1.228051e+09    6.157735e-09    6.526815e-13    5.630480e-09    8.459925e-10    1.320000e+00    7.426308e-01    4.508784e-01
    3.130803e+00    3.589482e+02    1.538577e+01    1.244592e+09    6.159820e-09    6.734430e-13    5.637000e-09    8.464560e-10    1.330000e+00    7.426308e-01    4.580563e-01
    3.076172e+00    3.548887e+02    1.587073e+01    1.261008e+09    6.161830e-09    6.946990e-13    5.643415e-09    8.469085e-10    1.340000e+00    7.426308e-01    4.652300e-01
    3.023276e+00    3.508691e+02    1.636218e+01    1.277300e+09    6.163765e-09    7.164625e-13    5.649725e-09    8.473515e-10    1.350000e+00    7.426308e-01    4.723998e-01
    2.972034e+00    3.468881e+02    1.686006e+01    1.293466e+09    6.165635e-09    7.387465e-13    5.655935e-09    8.477840e-10    1.360000e+00    7.426308e-01    4.795656e-01
    2.922370e+00    3.429458e+02    1.736433e+01    1.309509e+09    6.167440e-09    7.615650e-13    5.662050e-09    8.482075e-10    1.370000e+00    7.426308e-01    4.867275e-01
    2.874214e+00    3.390409e+02    1.787494e+01    1.325429e+09    6.169180e-09    7.849310e-13    5.668075e-09    8.486225e-10    1.380000e+00    7.426308e-01    4.938856e-01
    2.827498e+00    3.351732e+02    1.839184e+01    1.341227e+09    6.170855e-09    8.088595e-13    5.674015e-09    8.490285e-10    1.390000e+00    7.426308e-01    5.010401e-01
    2.782157e+00    3.313415e+02    1.891498e+01    1.356901e+09    6.172480e-09    8.333655e-13    5.679875e-09    8.494270e-10    1.400000e+00    7.426308e-01    5.081909e-01
    2.738132e+00    3.275454e+02    1.944432e+01    1.372453e+09    6.174045e-09    8.584635e-13    5.685650e-09    8.498170e-10    1.410000e+00    7.426308e-01    5.153382e-01
    2.695369e+00    3.237847e+02    1.997978e+01    1.387884e+09    6.175555e-09    8.841690e-13    5.691345e-09    8.502000e-10    1.420000e+00    7.426308e-01    5.224820e-01
    2.653811e+00    3.200581e+02    2.052135e+01    1.403193e+09    6.177015e-09    9.104985e-13    5.696970e-09    8.505755e-10    1.430000e+00    7.426308e-01    5.296224e-01
    2.613410e+00    3.163653e+02    2.106896e+01    1.418382e+09    6.178425e-09    9.374690e-13    5.702520e-09    8.509445e-10    1.440000e+00    7.426308e-01    5.367595e-01
    2.574118e+00    3.127059e+02    2.162258e+01    1.433449e+09    6.179790e-09    9.650970e-13    5.708005e-09    8.513065e-10    1.450000e+00    7.426308e-01    5.438935e-01
    2.535888e+00    3.090791e+02    2.218213e+01    1.448396e+09    6.181105e-09    9.934000e-13    5.713420e-09    8.516620e-10    1.460000e+00    7.426308e-01    5.510243e-01
    2.498683e+00    3.054849e+02    2.274759e+01    1.463225e+09    6.182375e-09    1.022397e-12    5.718770e-09    8.520115e-10    1.470000e+00    7.426308e-01    5.581521e-01
    2.462456e+00    3.019222e+02    2.331890e+01    1.477933e+09    6.183605e-09    1.052105e-12    5.724060e-09    8.523550e-10    1.480000e+00    7.426308e-01    5.652769e-01
    2.427171e+00    2.983907e+02    2.389601e+01    1.492521e+09    6.184795e-09    1.082545e-12    5.729290e-09    8.526925e-10    1.490000e+00    7.426308e-01    5.723989e-01
    2.392794e+00    2.948900e+02    2.447887e+01    1.506993e+09    6.185940e-09    1.113736e-12    5.734460e-09    8.530250e-10    1.500000e+00    7.426308e-01    5.795181e-01
    2.359289e+00    2.914197e+02    2.506745e+01    1.521345e+09    6.187050e-09    1.145698e-12    5.739575e-09    8.533515e-10    1.510000e+00    7.426308e-01    5.866347e-01
    2.326622e+00    2.879793e+02    2.566169e+01    1.535580e+09    6.188120e-09    1.178454e-12    5.744630e-09    8.536730e-10    1.520000e+00    7.426308e-01    5.937487e-01
    2.294763e+00    2.845682e+02    2.626154e+01    1.549697e+09    6.189155e-09    1.212024e-12    5.749640e-09    8.539895e-10    1.530000e+00    7.426308e-01    6.008602e-01
    2.263683e+00    2.811862e+02    2.686695e+01    1.563697e+09    6.190155e-09    1.246431e-12    5.754595e-09    8.543015e-10    1.540000e+00    7.426308e-01    6.079692e-01
    2.233353e+00    2.778328e+02    2.747788e+01    1.577579e+09    6.191125e-09    1.281698e-12    5.759495e-09    8.546085e-10    1.550000e+00    7.426308e-01    6.150760e-01
    2.203745e+00    2.745076e+02    2.809428e+01    1.591346e+09    6.192055e-09    1.317849e-12    5.764355e-09    8.549110e-10    1.560000e+00    7.426308e-01    6.221806e-01
    2.174834e+00    2.712101e+02    2.871612e+01    1.604995e+09    6.192960e-09    1.354910e-12    5.769160e-09    8.552090e-10    1.570000e+00    7.426308e-01    6.292830e-01
