# GF180MCU-D pfet_03v3 gm/ID Processed Lookup Table
# Corner: ss
# Temperature: 85C
# W = 2.0 um
# L = 3 um (3000 nm)
# Columns: gm/id [1/V]  gm/gds [V/V]  id/W [A/m]  ft [Hz]  Cgg/W [F/m]  Cgd/W [F/m]  Cgs/W [F/m]  Cdb/W [F/m]  vgs [V]  vth [V]  vdsat [V]
# vdsat = BSIM saturation voltage (|VDS|_sat, positive); use for headroom / saturation / cascode-bias calculations
#           gm/id          gm/gds            id/W              ft           Cgg/W           Cgd/W           Cgs/W           Cdb/W             vgs             vth           vdsat
    6.596808e-01    4.888446e+00    1.680377e+01    1.862544e+08    9.472270e-09    1.190561e-10    9.345685e-09    1.729705e-09   -3.300000e+00    8.338119e-01    1.857859e+00
    6.650541e-01    5.054574e+00    1.669292e+01    1.865658e+08    9.470600e-09    1.152298e-10    9.341920e-09    1.729228e-09   -3.290000e+00    8.338119e-01    1.849408e+00
    6.704848e-01    5.230452e+00    1.658174e+01    1.868681e+08    9.469000e-09    1.115353e-10    9.338090e-09    1.728751e-09   -3.280000e+00    8.338119e-01    1.840968e+00
    6.759615e-01    5.416815e+00    1.647048e+01    1.871608e+08    9.467460e-09    1.079681e-10    9.334180e-09    1.728274e-09   -3.270000e+00    8.338119e-01    1.832538e+00
    6.814856e-01    5.614458e+00    1.635907e+01    1.874433e+08    9.465980e-09    1.045240e-10    9.330210e-09    1.727799e-09   -3.260000e+00    8.338119e-01    1.824118e+00
    6.870555e-01    5.824251e+00    1.624751e+01    1.877148e+08    9.464560e-09    1.011985e-10    9.326165e-09    1.727324e-09   -3.250000e+00    8.338119e-01    1.815708e+00
    6.926694e-01    6.047119e+00    1.613582e+01    1.879745e+08    9.463200e-09    9.798770e-11    9.322060e-09    1.726850e-09   -3.240000e+00    8.338119e-01    1.807309e+00
    6.983243e-01    6.284066e+00    1.602398e+01    1.882217e+08    9.461890e-09    9.488760e-11    9.317890e-09    1.726378e-09   -3.230000e+00    8.338119e-01    1.798920e+00
    7.040181e-01    6.536171e+00    1.591202e+01    1.884556e+08    9.460635e-09    9.189425e-11    9.313665e-09    1.725906e-09   -3.220000e+00    8.338119e-01    1.790541e+00
    7.097482e-01    6.804601e+00    1.579994e+01    1.886752e+08    9.459430e-09    8.900395e-11    9.309375e-09    1.725436e-09   -3.210000e+00    8.338119e-01    1.782173e+00
    7.155110e-01    7.090591e+00    1.568774e+01    1.888795e+08    9.458275e-09    8.621305e-11    9.305035e-09    1.724968e-09   -3.200000e+00    8.338119e-01    1.773814e+00
    7.213030e-01    7.395476e+00    1.557545e+01    1.890677e+08    9.457165e-09    8.351810e-11    9.300635e-09    1.724501e-09   -3.190000e+00    8.338119e-01    1.765466e+00
    7.271215e-01    7.720679e+00    1.546306e+01    1.892389e+08    9.456100e-09    8.091560e-11    9.296185e-09    1.724035e-09   -3.180000e+00    8.338119e-01    1.757128e+00
    7.329624e-01    8.067699e+00    1.535058e+01    1.893919e+08    9.455080e-09    7.840235e-11    9.291680e-09    1.723571e-09   -3.170000e+00    8.338119e-01    1.748800e+00
    7.388216e-01    8.438138e+00    1.523803e+01    1.895258e+08    9.454100e-09    7.597510e-11    9.287130e-09    1.723109e-09   -3.160000e+00    8.338119e-01    1.740482e+00
    7.446950e-01    8.833680e+00    1.512542e+01    1.896396e+08    9.453160e-09    7.363085e-11    9.282525e-09    1.722649e-09   -3.150000e+00    8.338119e-01    1.732174e+00
    7.505788e-01    9.256088e+00    1.501276e+01    1.897323e+08    9.452255e-09    7.136655e-11    9.277880e-09    1.722190e-09   -3.140000e+00    8.338119e-01    1.723876e+00
    7.564683e-01    9.707206e+00    1.490006e+01    1.898030e+08    9.451390e-09    6.917935e-11    9.273185e-09    1.721734e-09   -3.130000e+00    8.338119e-01    1.715589e+00
    7.623594e-01    1.018895e+01    1.478733e+01    1.898507e+08    9.450560e-09    6.706650e-11    9.268450e-09    1.721279e-09   -3.120000e+00    8.338119e-01    1.707311e+00
    7.682474e-01    1.070328e+01    1.467460e+01    1.898745e+08    9.449760e-09    6.502535e-11    9.263670e-09    1.720827e-09   -3.110000e+00    8.338119e-01    1.699043e+00
    7.741288e-01    1.125223e+01    1.456186e+01    1.898736e+08    9.448995e-09    6.305325e-11    9.258850e-09    1.720376e-09   -3.100000e+00    8.338119e-01    1.690785e+00
    7.799991e-01    1.183783e+01    1.444915e+01    1.898473e+08    9.448265e-09    6.114780e-11    9.253985e-09    1.719927e-09   -3.090000e+00    8.338119e-01    1.682537e+00
    7.858544e-01    1.246216e+01    1.433646e+01    1.897949e+08    9.447560e-09    5.930650e-11    9.249085e-09    1.719480e-09   -3.080000e+00    8.338119e-01    1.674299e+00
    7.916918e-01    1.312725e+01    1.422382e+01    1.897161e+08    9.446880e-09    5.752710e-11    9.244145e-09    1.719035e-09   -3.070000e+00    8.338119e-01    1.666071e+00
    7.975073e-01    1.383513e+01    1.411125e+01    1.896102e+08    9.446230e-09    5.580730e-11    9.239170e-09    1.718592e-09   -3.060000e+00    8.338119e-01    1.657853e+00
    8.032989e-01    1.458774e+01    1.399875e+01    1.894770e+08    9.445610e-09    5.414505e-11    9.234155e-09    1.718151e-09   -3.050000e+00    8.338119e-01    1.649644e+00
    8.090636e-01    1.538698e+01    1.388635e+01    1.893165e+08    9.445010e-09    5.253820e-11    9.229110e-09    1.717712e-09   -3.040000e+00    8.338119e-01    1.641446e+00
    8.147993e-01    1.623459e+01    1.377406e+01    1.891285e+08    9.444430e-09    5.098475e-11    9.224025e-09    1.717275e-09   -3.030000e+00    8.338119e-01    1.633257e+00
    8.205051e-01    1.713218e+01    1.366190e+01    1.889131e+08    9.443875e-09    4.948284e-11    9.218910e-09    1.716840e-09   -3.020000e+00    8.338119e-01    1.625078e+00
    8.261803e-01    1.808122e+01    1.354987e+01    1.886706e+08    9.443345e-09    4.803056e-11    9.213760e-09    1.716407e-09   -3.010000e+00    8.338119e-01    1.616909e+00
    8.318236e-01    1.908297e+01    1.343801e+01    1.884013e+08    9.442830e-09    4.662614e-11    9.208580e-09    1.715975e-09   -3.000000e+00    8.338119e-01    1.608750e+00
    8.374356e-01    2.013844e+01    1.332632e+01    1.881058e+08    9.442335e-09    4.526785e-11    9.203370e-09    1.715545e-09   -2.990000e+00    8.338119e-01    1.600600e+00
    8.430167e-01    2.124846e+01    1.321482e+01    1.877845e+08    9.441860e-09    4.395406e-11    9.198125e-09    1.715117e-09   -2.980000e+00    8.338119e-01    1.592460e+00
    8.485681e-01    2.241353e+01    1.310352e+01    1.874383e+08    9.441400e-09    4.268314e-11    9.192855e-09    1.714691e-09   -2.970000e+00    8.338119e-01    1.584330e+00
    8.540909e-01    2.363398e+01    1.299244e+01    1.870676e+08    9.440960e-09    4.145359e-11    9.187555e-09    1.714267e-09   -2.960000e+00    8.338119e-01    1.576209e+00
    8.595868e-01    2.490979e+01    1.288158e+01    1.866735e+08    9.440530e-09    4.026391e-11    9.182225e-09    1.713844e-09   -2.950000e+00    8.338119e-01    1.568098e+00
    8.650585e-01    2.624071e+01    1.277098e+01    1.862569e+08    9.440120e-09    3.911268e-11    9.176865e-09    1.713423e-09   -2.940000e+00    8.338119e-01    1.559997e+00
    8.705081e-01    2.762621e+01    1.266063e+01    1.858187e+08    9.439720e-09    3.799853e-11    9.171480e-09    1.713004e-09   -2.930000e+00    8.338119e-01    1.551905e+00
    8.759386e-01    2.906550e+01    1.255056e+01    1.853598e+08    9.439335e-09    3.692016e-11    9.166065e-09    1.712585e-09   -2.920000e+00    8.338119e-01    1.543823e+00
    8.813518e-01    3.055752e+01    1.244077e+01    1.848811e+08    9.438960e-09    3.587629e-11    9.160625e-09    1.712169e-09   -2.910000e+00    8.338119e-01    1.535751e+00
    8.867521e-01    3.210102e+01    1.233127e+01    1.843837e+08    9.438600e-09    3.486569e-11    9.155160e-09    1.711754e-09   -2.900000e+00    8.338119e-01    1.527688e+00
    8.921423e-01    3.369455e+01    1.222208e+01    1.838688e+08    9.438245e-09    3.388719e-11    9.149670e-09    1.711341e-09   -2.890000e+00    8.338119e-01    1.519634e+00
    8.975250e-01    3.533642e+01    1.211320e+01    1.833369e+08    9.437905e-09    3.293966e-11    9.144150e-09    1.710929e-09   -2.880000e+00    8.338119e-01    1.511590e+00
    9.029034e-01    3.702485e+01    1.200464e+01    1.827891e+08    9.437570e-09    3.202202e-11    9.138610e-09    1.710518e-09   -2.870000e+00    8.338119e-01    1.503556e+00
    9.082812e-01    3.875792e+01    1.189642e+01    1.822265e+08    9.437245e-09    3.113320e-11    9.133040e-09    1.710108e-09   -2.860000e+00    8.338119e-01    1.495531e+00
    9.136619e-01    4.053361e+01    1.178854e+01    1.816498e+08    9.436930e-09    3.027222e-11    9.127450e-09    1.709700e-09   -2.850000e+00    8.338119e-01    1.487515e+00
    9.190485e-01    4.234983e+01    1.168101e+01    1.810599e+08    9.436620e-09    2.943808e-11    9.121835e-09    1.709292e-09   -2.840000e+00    8.338119e-01    1.479509e+00
    9.244434e-01    4.420447e+01    1.157384e+01    1.804576e+08    9.436320e-09    2.862987e-11    9.116195e-09    1.708887e-09   -2.830000e+00    8.338119e-01    1.471512e+00
    9.298506e-01    4.609537e+01    1.146703e+01    1.798436e+08    9.436025e-09    2.784668e-11    9.110535e-09    1.708482e-09   -2.820000e+00    8.338119e-01    1.463525e+00
    9.352727e-01    4.802042e+01    1.136059e+01    1.792188e+08    9.435730e-09    2.708764e-11    9.104850e-09    1.708077e-09   -2.810000e+00    8.338119e-01    1.455547e+00
    9.407127e-01    4.997754e+01    1.125452e+01    1.785837e+08    9.435445e-09    2.635193e-11    9.099140e-09    1.707675e-09   -2.800000e+00    8.338119e-01    1.447578e+00
    9.461738e-01    5.196472e+01    1.114884e+01    1.779390e+08    9.435165e-09    2.563873e-11    9.093410e-09    1.707273e-09   -2.790000e+00    8.338119e-01    1.439619e+00
    9.516582e-01    5.397998e+01    1.104354e+01    1.772854e+08    9.434885e-09    2.494728e-11    9.087655e-09    1.706871e-09   -2.780000e+00    8.338119e-01    1.431669e+00
    9.571684e-01    5.602143e+01    1.093865e+01    1.766233e+08    9.434610e-09    2.427682e-11    9.081880e-09    1.706471e-09   -2.770000e+00    8.338119e-01    1.423728e+00
    9.627073e-01    5.808732e+01    1.083415e+01    1.759533e+08    9.434340e-09    2.362666e-11    9.076080e-09    1.706071e-09   -2.760000e+00    8.338119e-01    1.415797e+00
    9.682769e-01    6.017597e+01    1.073005e+01    1.752759e+08    9.434070e-09    2.299610e-11    9.070260e-09    1.705672e-09   -2.750000e+00    8.338119e-01    1.407875e+00
    9.738800e-01    6.228586e+01    1.062636e+01    1.745915e+08    9.433805e-09    2.238446e-11    9.064415e-09    1.705273e-09   -2.740000e+00    8.338119e-01    1.399962e+00
    9.795198e-01    6.441554e+01    1.052307e+01    1.739007e+08    9.433535e-09    2.179112e-11    9.058550e-09    1.704875e-09   -2.730000e+00    8.338119e-01    1.392058e+00
    9.851961e-01    6.656363e+01    1.042020e+01    1.732036e+08    9.433270e-09    2.121545e-11    9.052660e-09    1.704478e-09   -2.720000e+00    8.338119e-01    1.384164e+00
    9.909132e-01    6.872903e+01    1.031776e+01    1.725007e+08    9.433005e-09    2.065686e-11    9.046750e-09    1.704081e-09   -2.710000e+00    8.338119e-01    1.376278e+00
    9.966723e-01    7.091062e+01    1.021573e+01    1.717924e+08    9.432740e-09    2.011480e-11    9.040820e-09    1.703684e-09   -2.700000e+00    8.338119e-01    1.368402e+00
    1.002476e+00    7.310746e+01    1.011412e+01    1.710789e+08    9.432475e-09    1.958869e-11    9.034870e-09    1.703288e-09   -2.690000e+00    8.338119e-01    1.360535e+00
    1.008325e+00    7.531868e+01    1.001295e+01    1.703605e+08    9.432210e-09    1.907800e-11    9.028895e-09    1.702892e-09   -2.680000e+00    8.338119e-01    1.352677e+00
    1.014222e+00    7.754359e+01    9.912195e+00    1.696375e+08    9.431945e-09    1.858225e-11    9.022900e-09    1.702496e-09   -2.670000e+00    8.338119e-01    1.344829e+00
    1.020169e+00    7.978152e+01    9.811880e+00    1.689102e+08    9.431675e-09    1.810091e-11    9.016880e-09    1.702100e-09   -2.660000e+00    8.338119e-01    1.336989e+00
    1.026168e+00    8.203196e+01    9.712000e+00    1.681787e+08    9.431405e-09    1.763354e-11    9.010845e-09    1.701705e-09   -2.650000e+00    8.338119e-01    1.329158e+00
    1.032220e+00    8.429449e+01    9.612560e+00    1.674433e+08    9.431130e-09    1.717965e-11    9.004780e-09    1.701309e-09   -2.640000e+00    8.338119e-01    1.321336e+00
    1.038327e+00    8.656881e+01    9.513555e+00    1.667042e+08    9.430850e-09    1.673883e-11    8.998700e-09    1.700914e-09   -2.630000e+00    8.338119e-01    1.313524e+00
    1.044491e+00    8.885459e+01    9.414995e+00    1.659613e+08    9.430575e-09    1.631062e-11    8.992595e-09    1.700518e-09   -2.620000e+00    8.338119e-01    1.305720e+00
    1.050714e+00    9.115171e+01    9.316880e+00    1.652152e+08    9.430290e-09    1.589464e-11    8.986470e-09    1.700122e-09   -2.610000e+00    8.338119e-01    1.297926e+00
    1.056996e+00    9.346002e+01    9.219210e+00    1.644658e+08    9.430000e-09    1.549049e-11    8.980320e-09    1.699726e-09   -2.600000e+00    8.338119e-01    1.290140e+00
    1.063341e+00    9.577958e+01    9.121985e+00    1.637133e+08    9.429710e-09    1.509778e-11    8.974150e-09    1.699330e-09   -2.590000e+00    8.338119e-01    1.282363e+00
    1.069749e+00    9.811029e+01    9.025215e+00    1.629577e+08    9.429415e-09    1.471615e-11    8.967960e-09    1.698933e-09   -2.580000e+00    8.338119e-01    1.274596e+00
    1.076223e+00    1.004524e+02    8.928890e+00    1.621993e+08    9.429115e-09    1.434524e-11    8.961750e-09    1.698536e-09   -2.570000e+00    8.338119e-01    1.266837e+00
    1.082762e+00    1.028058e+02    8.833025e+00    1.614381e+08    9.428805e-09    1.398471e-11    8.955510e-09    1.698138e-09   -2.560000e+00    8.338119e-01    1.259087e+00
    1.089371e+00    1.051709e+02    8.737610e+00    1.606742e+08    9.428495e-09    1.363423e-11    8.949255e-09    1.697740e-09   -2.550000e+00    8.338119e-01    1.251346e+00
    1.096049e+00    1.075479e+02    8.642655e+00    1.599078e+08    9.428175e-09    1.329349e-11    8.942975e-09    1.697342e-09   -2.540000e+00    8.338119e-01    1.243613e+00
    1.102799e+00    1.099370e+02    8.548155e+00    1.591389e+08    9.427850e-09    1.296217e-11    8.936670e-09    1.696943e-09   -2.530000e+00    8.338119e-01    1.235890e+00
    1.109622e+00    1.123385e+02    8.454120e+00    1.583676e+08    9.427520e-09    1.263999e-11    8.930345e-09    1.696543e-09   -2.520000e+00    8.338119e-01    1.228175e+00
    1.116521e+00    1.147529e+02    8.360540e+00    1.575940e+08    9.427180e-09    1.232665e-11    8.924000e-09    1.696142e-09   -2.510000e+00    8.338119e-01    1.220470e+00
    1.123496e+00    1.171804e+02    8.267425e+00    1.568181e+08    9.426835e-09    1.202188e-11    8.917630e-09    1.695741e-09   -2.500000e+00    8.338119e-01    1.212773e+00
    1.130550e+00    1.196215e+02    8.174770e+00    1.560400e+08    9.426480e-09    1.172541e-11    8.911235e-09    1.695338e-09   -2.490000e+00    8.338119e-01    1.205084e+00
    1.137683e+00    1.220765e+02    8.082585e+00    1.552597e+08    9.426120e-09    1.143699e-11    8.904820e-09    1.694935e-09   -2.480000e+00    8.338119e-01    1.197405e+00
    1.144898e+00    1.245460e+02    7.990865e+00    1.544773e+08    9.425750e-09    1.115637e-11    8.898380e-09    1.694532e-09   -2.470000e+00    8.338119e-01    1.189734e+00
    1.152197e+00    1.270305e+02    7.899610e+00    1.536931e+08    9.425370e-09    1.088330e-11    8.891915e-09    1.694127e-09   -2.460000e+00    8.338119e-01    1.182072e+00
    1.159581e+00    1.295302e+02    7.808825e+00    1.529067e+08    9.424980e-09    1.061756e-11    8.885425e-09    1.693720e-09   -2.450000e+00    8.338119e-01    1.174419e+00
    1.167052e+00    1.320461e+02    7.718510e+00    1.521184e+08    9.424585e-09    1.035893e-11    8.878915e-09    1.693313e-09   -2.440000e+00    8.338119e-01    1.166774e+00
    1.174612e+00    1.345783e+02    7.628670e+00    1.513282e+08    9.424175e-09    1.010719e-11    8.872380e-09    1.692905e-09   -2.430000e+00    8.338119e-01    1.159138e+00
    1.182264e+00    1.371276e+02    7.539295e+00    1.505362e+08    9.423760e-09    9.862125e-12    8.865820e-09    1.692495e-09   -2.420000e+00    8.338119e-01    1.151510e+00
    1.190007e+00    1.396943e+02    7.450400e+00    1.497423e+08    9.423335e-09    9.623540e-12    8.859235e-09    1.692084e-09   -2.410000e+00    8.338119e-01    1.143892e+00
    1.197845e+00    1.422792e+02    7.361975e+00    1.489467e+08    9.422895e-09    9.391240e-12    8.852625e-09    1.691671e-09   -2.400000e+00    8.338119e-01    1.136281e+00
    1.205779e+00    1.448829e+02    7.274030e+00    1.481492e+08    9.422445e-09    9.165035e-12    8.845990e-09    1.691257e-09   -2.390000e+00    8.338119e-01    1.128680e+00
    1.213812e+00    1.475059e+02    7.186560e+00    1.473501e+08    9.421985e-09    8.944745e-12    8.839330e-09    1.690841e-09   -2.380000e+00    8.338119e-01    1.121087e+00
    1.221945e+00    1.501487e+02    7.099570e+00    1.465491e+08    9.421515e-09    8.730190e-12    8.832645e-09    1.690425e-09   -2.370000e+00    8.338119e-01    1.113502e+00
    1.230182e+00    1.528122e+02    7.013055e+00    1.457466e+08    9.421030e-09    8.521205e-12    8.825935e-09    1.690006e-09   -2.360000e+00    8.338119e-01    1.105926e+00
    1.238523e+00    1.554969e+02    6.927020e+00    1.449423e+08    9.420535e-09    8.317625e-12    8.819195e-09    1.689585e-09   -2.350000e+00    8.338119e-01    1.098359e+00
    1.246971e+00    1.582033e+02    6.841470e+00    1.441364e+08    9.420030e-09    8.119290e-12    8.812430e-09    1.689164e-09   -2.340000e+00    8.338119e-01    1.090800e+00
    1.255529e+00    1.609325e+02    6.756400e+00    1.433289e+08    9.419510e-09    7.926050e-12    8.805640e-09    1.688740e-09   -2.330000e+00    8.338119e-01    1.083249e+00
    1.264197e+00    1.636847e+02    6.671815e+00    1.425198e+08    9.418975e-09    7.737750e-12    8.798825e-09    1.688314e-09   -2.320000e+00    8.338119e-01    1.075707e+00
    1.272980e+00    1.664607e+02    6.587710e+00    1.417092e+08    9.418425e-09    7.554250e-12    8.791980e-09    1.687886e-09   -2.310000e+00    8.338119e-01    1.068174e+00
    1.281880e+00    1.692613e+02    6.504090e+00    1.408969e+08    9.417865e-09    7.375415e-12    8.785105e-09    1.687457e-09   -2.300000e+00    8.338119e-01    1.060648e+00
    1.290897e+00    1.720871e+02    6.420960e+00    1.400830e+08    9.417290e-09    7.201105e-12    8.778205e-09    1.687025e-09   -2.290000e+00    8.338119e-01    1.053132e+00
    1.300036e+00    1.749390e+02    6.338315e+00    1.392677e+08    9.416700e-09    7.031190e-12    8.771275e-09    1.686591e-09   -2.280000e+00    8.338119e-01    1.045623e+00
    1.309298e+00    1.778175e+02    6.256160e+00    1.384508e+08    9.416095e-09    6.865545e-12    8.764315e-09    1.686154e-09   -2.270000e+00    8.338119e-01    1.038123e+00
    1.318685e+00    1.807234e+02    6.174495e+00    1.376323e+08    9.415475e-09    6.704050e-12    8.757330e-09    1.685716e-09   -2.260000e+00    8.338119e-01    1.030632e+00
    1.328204e+00    1.836576e+02    6.093315e+00    1.368124e+08    9.414840e-09    6.546585e-12    8.750310e-09    1.685275e-09   -2.250000e+00    8.338119e-01    1.023148e+00
    1.337853e+00    1.866206e+02    6.012630e+00    1.359910e+08    9.414190e-09    6.393035e-12    8.743265e-09    1.684831e-09   -2.240000e+00    8.338119e-01    1.015673e+00
    1.347637e+00    1.896134e+02    5.932435e+00    1.351680e+08    9.413525e-09    6.243295e-12    8.736185e-09    1.684386e-09   -2.230000e+00    8.338119e-01    1.008207e+00
    1.357559e+00    1.926368e+02    5.852735e+00    1.343436e+08    9.412840e-09    6.097255e-12    8.729080e-09    1.683938e-09   -2.220000e+00    8.338119e-01    1.000748e+00
