# GF180MCU-D pfet_03v3 gm/ID Processed Lookup Table
# Corner: ss
# Temperature: 85C
# W = 2.0 um
# L = 1 um (1000 nm)
# Columns: gm/id [1/V]  gm/gds [V/V]  id/W [A/m]  ft [Hz]  Cgg/W [F/m]  Cgd/W [F/m]  Cgs/W [F/m]  Cdb/W [F/m]  vgs [V]  vth [V]  vdsat [V]
# vdsat = BSIM saturation voltage (|VDS|_sat, positive); use for headroom / saturation / cascode-bias calculations
#           gm/id          gm/gds            id/W              ft           Cgg/W           Cgd/W           Cgs/W           Cdb/W             vgs             vth           vdsat
    6.015565e-01    3.443071e+00    5.086935e+01    1.509109e+09    3.227247e-09    5.695135e-11    3.100395e-09    5.656515e-10   -3.300000e+00    8.427960e-01    1.919181e+00
    6.064045e-01    3.530059e+00    5.056335e+01    1.512520e+09    3.226393e-09    5.508410e-11    3.099564e-09    5.654665e-10   -3.290000e+00    8.427960e-01    1.910859e+00
    6.113157e-01    3.620940e+00    5.025615e+01    1.515892e+09    3.225571e-09    5.327995e-11    3.098698e-09    5.652820e-10   -3.280000e+00    8.427960e-01    1.902543e+00
    6.162798e-01    3.715946e+00    4.994861e+01    1.519223e+09    3.224779e-09    5.153700e-11    3.097800e-09    5.650975e-10   -3.270000e+00    8.427960e-01    1.894234e+00
    6.212998e-01    3.815323e+00    4.964049e+01    1.522509e+09    3.224018e-09    4.985339e-11    3.096870e-09    5.649140e-10   -3.260000e+00    8.427960e-01    1.885933e+00
    6.263755e-01    3.919338e+00    4.933178e+01    1.525749e+09    3.223285e-09    4.822722e-11    3.095908e-09    5.647315e-10   -3.250000e+00    8.427960e-01    1.877638e+00
    6.315068e-01    4.028272e+00    4.902249e+01    1.528938e+09    3.222580e-09    4.665668e-11    3.094917e-09    5.645490e-10   -3.240000e+00    8.427960e-01    1.869351e+00
    6.366934e-01    4.142420e+00    4.871263e+01    1.532074e+09    3.221902e-09    4.513998e-11    3.093896e-09    5.643680e-10   -3.230000e+00    8.427960e-01    1.861070e+00
    6.419345e-01    4.262104e+00    4.840220e+01    1.535152e+09    3.221250e-09    4.367536e-11    3.092848e-09    5.641870e-10   -3.220000e+00    8.427960e-01    1.852796e+00
    6.472297e-01    4.387656e+00    4.809121e+01    1.538169e+09    3.220625e-09    4.226114e-11    3.091773e-09    5.640075e-10   -3.210000e+00    8.427960e-01    1.844529e+00
    6.525780e-01    4.519438e+00    4.777967e+01    1.541121e+09    3.220023e-09    4.089562e-11    3.090671e-09    5.638285e-10   -3.200000e+00    8.427960e-01    1.836270e+00
    6.579784e-01    4.657816e+00    4.746761e+01    1.544003e+09    3.219444e-09    3.957719e-11    3.089543e-09    5.636505e-10   -3.190000e+00    8.427960e-01    1.828016e+00
    6.634297e-01    4.803198e+00    4.715503e+01    1.546810e+09    3.218889e-09    3.830425e-11    3.088391e-09    5.634735e-10   -3.180000e+00    8.427960e-01    1.819770e+00
    6.689305e-01    4.955994e+00    4.684193e+01    1.549537e+09    3.218355e-09    3.707527e-11    3.087216e-09    5.632975e-10   -3.170000e+00    8.427960e-01    1.811531e+00
    6.744794e-01    5.116642e+00    4.652835e+01    1.552179e+09    3.217842e-09    3.588875e-11    3.086017e-09    5.631225e-10   -3.160000e+00    8.427960e-01    1.803298e+00
    6.800743e-01    5.285595e+00    4.621430e+01    1.554728e+09    3.217350e-09    3.474323e-11    3.084797e-09    5.629485e-10   -3.150000e+00    8.427960e-01    1.795073e+00
    6.857135e-01    5.463333e+00    4.589978e+01    1.557180e+09    3.216878e-09    3.363728e-11    3.083554e-09    5.627755e-10   -3.140000e+00    8.427960e-01    1.786854e+00
    6.913945e-01    5.650341e+00    4.558482e+01    1.559527e+09    3.216424e-09    3.256953e-11    3.082291e-09    5.626035e-10   -3.130000e+00    8.427960e-01    1.778642e+00
    6.971151e-01    5.847129e+00    4.526944e+01    1.561763e+09    3.215989e-09    3.153865e-11    3.081008e-09    5.624330e-10   -3.120000e+00    8.427960e-01    1.770436e+00
    7.028726e-01    6.054202e+00    4.495367e+01    1.563881e+09    3.215571e-09    3.054334e-11    3.079705e-09    5.622630e-10   -3.110000e+00    8.427960e-01    1.762238e+00
    7.086641e-01    6.272096e+00    4.463752e+01    1.565874e+09    3.215169e-09    2.958235e-11    3.078383e-09    5.620945e-10   -3.100000e+00    8.427960e-01    1.754046e+00
    7.144868e-01    6.501331e+00    4.432102e+01    1.567733e+09    3.214784e-09    2.865446e-11    3.077042e-09    5.619270e-10   -3.090000e+00    8.427960e-01    1.745860e+00
    7.203373e-01    6.742431e+00    4.400418e+01    1.569452e+09    3.214415e-09    2.775851e-11    3.075685e-09    5.617605e-10   -3.080000e+00    8.427960e-01    1.737682e+00
    7.262123e-01    6.995918e+00    4.368707e+01    1.571023e+09    3.214060e-09    2.689335e-11    3.074310e-09    5.615950e-10   -3.070000e+00    8.427960e-01    1.729510e+00
    7.321086e-01    7.262293e+00    4.336968e+01    1.572439e+09    3.213720e-09    2.605787e-11    3.072918e-09    5.614305e-10   -3.060000e+00    8.427960e-01    1.721345e+00
    7.380225e-01    7.542039e+00    4.305205e+01    1.573692e+09    3.213394e-09    2.525103e-11    3.071510e-09    5.612675e-10   -3.050000e+00    8.427960e-01    1.713186e+00
    7.439505e-01    7.835609e+00    4.273422e+01    1.574774e+09    3.213080e-09    2.447180e-11    3.070087e-09    5.611050e-10   -3.040000e+00    8.427960e-01    1.705034e+00
    7.498891e-01    8.143418e+00    4.241622e+01    1.575681e+09    3.212779e-09    2.371917e-11    3.068648e-09    5.609440e-10   -3.030000e+00    8.427960e-01    1.696889e+00
    7.558351e-01    8.465834e+00    4.209808e+01    1.576404e+09    3.212491e-09    2.299220e-11    3.067195e-09    5.607840e-10   -3.020000e+00    8.427960e-01    1.688750e+00
    7.617847e-01    8.803169e+00    4.177985e+01    1.576938e+09    3.212215e-09    2.228995e-11    3.065727e-09    5.606250e-10   -3.010000e+00    8.427960e-01    1.680618e+00
    7.677349e-01    9.155675e+00    4.146155e+01    1.577279e+09    3.211949e-09    2.161154e-11    3.064245e-09    5.604670e-10   -3.000000e+00    8.427960e-01    1.672492e+00
    7.736829e-01    9.523528e+00    4.114323e+01    1.577420e+09    3.211694e-09    2.095611e-11    3.062750e-09    5.603100e-10   -2.990000e+00    8.427960e-01    1.664373e+00
    7.796259e-01    9.906829e+00    4.082493e+01    1.577360e+09    3.211449e-09    2.032282e-11    3.061242e-09    5.601545e-10   -2.980000e+00    8.427960e-01    1.656261e+00
    7.855614e-01    1.030559e+01    4.050668e+01    1.577095e+09    3.211213e-09    1.971088e-11    3.059721e-09    5.599995e-10   -2.970000e+00    8.427960e-01    1.648154e+00
    7.914874e-01    1.071975e+01    4.018853e+01    1.576622e+09    3.210987e-09    1.911950e-11    3.058187e-09    5.598455e-10   -2.960000e+00    8.427960e-01    1.640055e+00
    7.974021e-01    1.114913e+01    3.987052e+01    1.575942e+09    3.210770e-09    1.854796e-11    3.056641e-09    5.596925e-10   -2.950000e+00    8.427960e-01    1.631962e+00
    8.033041e-01    1.159349e+01    3.955269e+01    1.575053e+09    3.210562e-09    1.799553e-11    3.055084e-09    5.595410e-10   -2.940000e+00    8.427960e-01    1.623875e+00
    8.091929e-01    1.205248e+01    3.923508e+01    1.573957e+09    3.210361e-09    1.746152e-11    3.053515e-09    5.593900e-10   -2.930000e+00    8.427960e-01    1.615795e+00
    8.150676e-01    1.252567e+01    3.891772e+01    1.572655e+09    3.210168e-09    1.694527e-11    3.051935e-09    5.592395e-10   -2.920000e+00    8.427960e-01    1.607721e+00
    8.209282e-01    1.301258e+01    3.860068e+01    1.571150e+09    3.209982e-09    1.644614e-11    3.050343e-09    5.590905e-10   -2.910000e+00    8.427960e-01    1.599654e+00
    8.267751e-01    1.351261e+01    3.828397e+01    1.569445e+09    3.209804e-09    1.596350e-11    3.048742e-09    5.589420e-10   -2.900000e+00    8.427960e-01    1.591592e+00
    8.326091e-01    1.402515e+01    3.796765e+01    1.567544e+09    3.209632e-09    1.549677e-11    3.047130e-09    5.587950e-10   -2.890000e+00    8.427960e-01    1.583538e+00
    8.384310e-01    1.454950e+01    3.765174e+01    1.565452e+09    3.209466e-09    1.504537e-11    3.045507e-09    5.586480e-10   -2.880000e+00    8.427960e-01    1.575489e+00
    8.442423e-01    1.508495e+01    3.733629e+01    1.563174e+09    3.209306e-09    1.460875e-11    3.043874e-09    5.585025e-10   -2.870000e+00    8.427960e-01    1.567448e+00
    8.500447e-01    1.563076e+01    3.702134e+01    1.560716e+09    3.209151e-09    1.418638e-11    3.042232e-09    5.583575e-10   -2.860000e+00    8.427960e-01    1.559412e+00
    8.558402e-01    1.618618e+01    3.670690e+01    1.558083e+09    3.209002e-09    1.377775e-11    3.040580e-09    5.582135e-10   -2.850000e+00    8.427960e-01    1.551382e+00
    8.616308e-01    1.675044e+01    3.639304e+01    1.555282e+09    3.208859e-09    1.338238e-11    3.038919e-09    5.580700e-10   -2.840000e+00    8.427960e-01    1.543359e+00
    8.674191e-01    1.732281e+01    3.607977e+01    1.552319e+09    3.208719e-09    1.299978e-11    3.037248e-09    5.579270e-10   -2.830000e+00    8.427960e-01    1.535343e+00
    8.732073e-01    1.790256e+01    3.576713e+01    1.549202e+09    3.208585e-09    1.262950e-11    3.035568e-09    5.577850e-10   -2.820000e+00    8.427960e-01    1.527332e+00
    8.789983e-01    1.848901e+01    3.545514e+01    1.545936e+09    3.208454e-09    1.227110e-11    3.033879e-09    5.576440e-10   -2.810000e+00    8.427960e-01    1.519328e+00
    8.847946e-01    1.908150e+01    3.514384e+01    1.542528e+09    3.208327e-09    1.192416e-11    3.032182e-09    5.575030e-10   -2.800000e+00    8.427960e-01    1.511329e+00
    8.905992e-01    1.967943e+01    3.483325e+01    1.538985e+09    3.208204e-09    1.158827e-11    3.030475e-09    5.573630e-10   -2.790000e+00    8.427960e-01    1.503338e+00
    8.964146e-01    2.028222e+01    3.452340e+01    1.535312e+09    3.208085e-09    1.126306e-11    3.028760e-09    5.572240e-10   -2.780000e+00    8.427960e-01    1.495352e+00
    9.022438e-01    2.088939e+01    3.421431e+01    1.531517e+09    3.207968e-09    1.094813e-11    3.027038e-09    5.570850e-10   -2.770000e+00    8.427960e-01    1.487372e+00
    9.080896e-01    2.150046e+01    3.390601e+01    1.527604e+09    3.207855e-09    1.064312e-11    3.025306e-09    5.569465e-10   -2.760000e+00    8.427960e-01    1.479399e+00
    9.139548e-01    2.211504e+01    3.359852e+01    1.523580e+09    3.207745e-09    1.034769e-11    3.023567e-09    5.568090e-10   -2.750000e+00    8.427960e-01    1.471431e+00
    9.198420e-01    2.273279e+01    3.329187e+01    1.519450e+09    3.207637e-09    1.006151e-11    3.021819e-09    5.566720e-10   -2.740000e+00    8.427960e-01    1.463470e+00
    9.257540e-01    2.335341e+01    3.298606e+01    1.515219e+09    3.207531e-09    9.784245e-12    3.020063e-09    5.565355e-10   -2.730000e+00    8.427960e-01    1.455515e+00
    9.316936e-01    2.397666e+01    3.268113e+01    1.510893e+09    3.207427e-09    9.515595e-12    3.018299e-09    5.563990e-10   -2.720000e+00    8.427960e-01    1.447566e+00
    9.376630e-01    2.460235e+01    3.237709e+01    1.506475e+09    3.207325e-09    9.255255e-12    3.016528e-09    5.562635e-10   -2.710000e+00    8.427960e-01    1.439623e+00
    9.436652e-01    2.523031e+01    3.207396e+01    1.501970e+09    3.207225e-09    9.002935e-12    3.014749e-09    5.561280e-10   -2.700000e+00    8.427960e-01    1.431686e+00
    9.497023e-01    2.586047e+01    3.177176e+01    1.497383e+09    3.207126e-09    8.758365e-12    3.012962e-09    5.559930e-10   -2.690000e+00    8.427960e-01    1.423755e+00
    9.557770e-01    2.649273e+01    3.147050e+01    1.492717e+09    3.207029e-09    8.521275e-12    3.011167e-09    5.558585e-10   -2.680000e+00    8.427960e-01    1.415830e+00
    9.618915e-01    2.712706e+01    3.117019e+01    1.487975e+09    3.206933e-09    8.291410e-12    3.009365e-09    5.557245e-10   -2.670000e+00    8.427960e-01    1.407912e+00
    9.680482e-01    2.776348e+01    3.087085e+01    1.483163e+09    3.206837e-09    8.068520e-12    3.007555e-09    5.555910e-10   -2.660000e+00    8.427960e-01    1.399999e+00
    9.742491e-01    2.840200e+01    3.057250e+01    1.478281e+09    3.206743e-09    7.852370e-12    3.005738e-09    5.554575e-10   -2.650000e+00    8.427960e-01    1.392092e+00
    9.804965e-01    2.904266e+01    3.027515e+01    1.473334e+09    3.206649e-09    7.642725e-12    3.003913e-09    5.553240e-10   -2.640000e+00    8.427960e-01    1.384191e+00
    9.867928e-01    2.968557e+01    2.997881e+01    1.468323e+09    3.206555e-09    7.439375e-12    3.002081e-09    5.551910e-10   -2.630000e+00    8.427960e-01    1.376296e+00
    9.931400e-01    3.033083e+01    2.968350e+01    1.463253e+09    3.206463e-09    7.242100e-12    3.000242e-09    5.550585e-10   -2.620000e+00    8.427960e-01    1.368407e+00
    9.995396e-01    3.097850e+01    2.938922e+01    1.458124e+09    3.206370e-09    7.050695e-12    2.998395e-09    5.549260e-10   -2.610000e+00    8.427960e-01    1.360523e+00
    1.005995e+00    3.162876e+01    2.909599e+01    1.452940e+09    3.206277e-09    6.864965e-12    2.996540e-09    5.547940e-10   -2.600000e+00    8.427960e-01    1.352646e+00
    1.012506e+00    3.228173e+01    2.880382e+01    1.447703e+09    3.206184e-09    6.684725e-12    2.994679e-09    5.546615e-10   -2.590000e+00    8.427960e-01    1.344774e+00
    1.019077e+00    3.293757e+01    2.851271e+01    1.442413e+09    3.206091e-09    6.509785e-12    2.992810e-09    5.545300e-10   -2.580000e+00    8.427960e-01    1.336909e+00
    1.025708e+00    3.359642e+01    2.822268e+01    1.437073e+09    3.205997e-09    6.339970e-12    2.990934e-09    5.543980e-10   -2.570000e+00    8.427960e-01    1.329049e+00
    1.032402e+00    3.425851e+01    2.793375e+01    1.431686e+09    3.205903e-09    6.175115e-12    2.989050e-09    5.542665e-10   -2.560000e+00    8.427960e-01    1.321195e+00
    1.039160e+00    3.492395e+01    2.764591e+01    1.426251e+09    3.205808e-09    6.015050e-12    2.987160e-09    5.541350e-10   -2.550000e+00    8.427960e-01    1.313347e+00
    1.045985e+00    3.559296e+01    2.735918e+01    1.420771e+09    3.205712e-09    5.859620e-12    2.985262e-09    5.540035e-10   -2.540000e+00    8.427960e-01    1.305504e+00
    1.052878e+00    3.626573e+01    2.707357e+01    1.415248e+09    3.205615e-09    5.708680e-12    2.983356e-09    5.538720e-10   -2.530000e+00    8.427960e-01    1.297667e+00
    1.059842e+00    3.694241e+01    2.678908e+01    1.409681e+09    3.205517e-09    5.562070e-12    2.981444e-09    5.537405e-10   -2.520000e+00    8.427960e-01    1.289836e+00
    1.066877e+00    3.762326e+01    2.650573e+01    1.404073e+09    3.205418e-09    5.419660e-12    2.979524e-09    5.536090e-10   -2.510000e+00    8.427960e-01    1.282011e+00
    1.073987e+00    3.830843e+01    2.622352e+01    1.398424e+09    3.205317e-09    5.281310e-12    2.977596e-09    5.534775e-10   -2.500000e+00    8.427960e-01    1.274192e+00
    1.081172e+00    3.899814e+01    2.594246e+01    1.392736e+09    3.205216e-09    5.146890e-12    2.975661e-09    5.533460e-10   -2.490000e+00    8.427960e-01    1.266378e+00
    1.088435e+00    3.969261e+01    2.566256e+01    1.387010e+09    3.205111e-09    5.016275e-12    2.973719e-09    5.532145e-10   -2.480000e+00    8.427960e-01    1.258570e+00
    1.095778e+00    4.039198e+01    2.538382e+01    1.381245e+09    3.205006e-09    4.889336e-12    2.971769e-09    5.530830e-10   -2.470000e+00    8.427960e-01    1.250767e+00
    1.103202e+00    4.109654e+01    2.510626e+01    1.375444e+09    3.204899e-09    4.765962e-12    2.969812e-09    5.529515e-10   -2.460000e+00    8.427960e-01    1.242970e+00
    1.110710e+00    4.180645e+01    2.482988e+01    1.369607e+09    3.204790e-09    4.646038e-12    2.967847e-09    5.528195e-10   -2.450000e+00    8.427960e-01    1.235179e+00
    1.118304e+00    4.252191e+01    2.455468e+01    1.363734e+09    3.204679e-09    4.529455e-12    2.965874e-09    5.526875e-10   -2.440000e+00    8.427960e-01    1.227393e+00
    1.125984e+00    4.324312e+01    2.428068e+01    1.357826e+09    3.204565e-09    4.416106e-12    2.963895e-09    5.525555e-10   -2.430000e+00    8.427960e-01    1.219613e+00
    1.133754e+00    4.397034e+01    2.400789e+01    1.351885e+09    3.204449e-09    4.305889e-12    2.961906e-09    5.524230e-10   -2.420000e+00    8.427960e-01    1.211839e+00
    1.141616e+00    4.470375e+01    2.373631e+01    1.345909e+09    3.204331e-09    4.198708e-12    2.959911e-09    5.522905e-10   -2.410000e+00    8.427960e-01    1.204070e+00
    1.149570e+00    4.544356e+01    2.346594e+01    1.339901e+09    3.204210e-09    4.094466e-12    2.957908e-09    5.521575e-10   -2.400000e+00    8.427960e-01    1.196307e+00
    1.157621e+00    4.618998e+01    2.319680e+01    1.333860e+09    3.204086e-09    3.993072e-12    2.955897e-09    5.520245e-10   -2.390000e+00    8.427960e-01    1.188549e+00
    1.165769e+00    4.694320e+01    2.292888e+01    1.327787e+09    3.203961e-09    3.894439e-12    2.953879e-09    5.518915e-10   -2.380000e+00    8.427960e-01    1.180796e+00
    1.174018e+00    4.770351e+01    2.266220e+01    1.321683e+09    3.203831e-09    3.798479e-12    2.951852e-09    5.517575e-10   -2.370000e+00    8.427960e-01    1.173050e+00
    1.182368e+00    4.847105e+01    2.239677e+01    1.315547e+09    3.203699e-09    3.705112e-12    2.949817e-09    5.516240e-10   -2.360000e+00    8.427960e-01    1.165308e+00
    1.190822e+00    4.924610e+01    2.213258e+01    1.309380e+09    3.203564e-09    3.614257e-12    2.947774e-09    5.514895e-10   -2.350000e+00    8.427960e-01    1.157572e+00
    1.199384e+00    5.002884e+01    2.186965e+01    1.303183e+09    3.203426e-09    3.525839e-12    2.945723e-09    5.513550e-10   -2.340000e+00    8.427960e-01    1.149842e+00
    1.208053e+00    5.081951e+01    2.160798e+01    1.296956e+09    3.203284e-09    3.439781e-12    2.943664e-09    5.512200e-10   -2.330000e+00    8.427960e-01    1.142117e+00
    1.216835e+00    5.161832e+01    2.134758e+01    1.290698e+09    3.203139e-09    3.356014e-12    2.941597e-09    5.510845e-10   -2.320000e+00    8.427960e-01    1.134397e+00
    1.225730e+00    5.242554e+01    2.108845e+01    1.284412e+09    3.202990e-09    3.274467e-12    2.939520e-09    5.509490e-10   -2.310000e+00    8.427960e-01    1.126683e+00
    1.234742e+00    5.324133e+01    2.083061e+01    1.278096e+09    3.202837e-09    3.195074e-12    2.937436e-09    5.508125e-10   -2.300000e+00    8.427960e-01    1.118974e+00
    1.243872e+00    5.406597e+01    2.057405e+01    1.271750e+09    3.202681e-09    3.117770e-12    2.935343e-09    5.506760e-10   -2.290000e+00    8.427960e-01    1.111270e+00
    1.253124e+00    5.489968e+01    2.031878e+01    1.265376e+09    3.202521e-09    3.042493e-12    2.933242e-09    5.505390e-10   -2.280000e+00    8.427960e-01    1.103572e+00
    1.262500e+00    5.574270e+01    2.006480e+01    1.258974e+09    3.202357e-09    2.969182e-12    2.931132e-09    5.504010e-10   -2.270000e+00    8.427960e-01    1.095879e+00
    1.272003e+00    5.659528e+01    1.981214e+01    1.252543e+09    3.202189e-09    2.897779e-12    2.929013e-09    5.502630e-10   -2.260000e+00    8.427960e-01    1.088192e+00
    1.281635e+00    5.745766e+01    1.956078e+01    1.246084e+09    3.202017e-09    2.828228e-12    2.926884e-09    5.501245e-10   -2.250000e+00    8.427960e-01    1.080509e+00
    1.291400e+00    5.833009e+01    1.931075e+01    1.239597e+09    3.201840e-09    2.760473e-12    2.924748e-09    5.499850e-10   -2.240000e+00    8.427960e-01    1.072832e+00
    1.301301e+00    5.921283e+01    1.906203e+01    1.233082e+09    3.201659e-09    2.694464e-12    2.922601e-09    5.498450e-10   -2.230000e+00    8.427960e-01    1.065161e+00
    1.311339e+00    6.010612e+01    1.881464e+01    1.226539e+09    3.201473e-09    2.630147e-12    2.920447e-09    5.497045e-10   -2.220000e+00    8.427960e-01    1.057494e+00
