# GF180MCU-D pfet_03v3 gm/ID Processed Lookup Table
# Corner: ss
# Temperature: 85C
# W = 2.0 um
# L = 0.5 um (500 nm)
# Columns: gm/id [1/V]  gm/gds [V/V]  id/W [A/m]  ft [Hz]  Cgg/W [F/m]  Cgd/W [F/m]  Cgs/W [F/m]  Cdb/W [F/m]  vgs [V]  vth [V]  vdsat [V]
# vdsat = BSIM saturation voltage (|VDS|_sat, positive); use for headroom / saturation / cascode-bias calculations
#           gm/id          gm/gds            id/W              ft           Cgg/W           Cgd/W           Cgs/W           Cdb/W             vgs             vth           vdsat
    5.290308e-01    2.598340e+00    9.875445e+01    5.043824e+09    1.648534e-09    4.627882e-11    1.509867e-09    2.736421e-10   -3.300000e+00    8.360770e-01    1.943787e+00
    5.331170e-01    2.648980e+00    9.823200e+01    5.058443e+09    1.647703e-09    4.466001e-11    1.509779e-09    2.734587e-10   -3.290000e+00    8.360770e-01    1.936236e+00
    5.372575e-01    2.701351e+00    9.770705e+01    5.072963e+09    1.646899e-09    4.309381e-11    1.509666e-09    2.732780e-10   -3.280000e+00    8.360770e-01    1.928686e+00
    5.414436e-01    2.755537e+00    9.718150e+01    5.087390e+09    1.646121e-09    4.157904e-11    1.509528e-09    2.731000e-10   -3.270000e+00    8.360770e-01    1.921136e+00
    5.456791e-01    2.811624e+00    9.665470e+01    5.101720e+09    1.645371e-09    4.011447e-11    1.509367e-09    2.729246e-10   -3.260000e+00    8.360770e-01    1.913587e+00
    5.499635e-01    2.869692e+00    9.612665e+01    5.115938e+09    1.644647e-09    3.869888e-11    1.509184e-09    2.727520e-10   -3.250000e+00    8.360770e-01    1.906038e+00
    5.542980e-01    2.929841e+00    9.559740e+01    5.130052e+09    1.643947e-09    3.733101e-11    1.508978e-09    2.725820e-10   -3.240000e+00    8.360770e-01    1.898491e+00
    5.586832e-01    2.992165e+00    9.506685e+01    5.144052e+09    1.643272e-09    3.600962e-11    1.508751e-09    2.724145e-10   -3.230000e+00    8.360770e-01    1.890944e+00
    5.631175e-01    3.056761e+00    9.453515e+01    5.157926e+09    1.642621e-09    3.473345e-11    1.508502e-09    2.722498e-10   -3.220000e+00    8.360770e-01    1.883397e+00
    5.676032e-01    3.123741e+00    9.400220e+01    5.171681e+09    1.641993e-09    3.350125e-11    1.508233e-09    2.720877e-10   -3.210000e+00    8.360770e-01    1.875851e+00
    5.721397e-01    3.193212e+00    9.346800e+01    5.185302e+09    1.641388e-09    3.231178e-11    1.507944e-09    2.719280e-10   -3.200000e+00    8.360770e-01    1.868306e+00
    5.767268e-01    3.265290e+00    9.293265e+01    5.198784e+09    1.640804e-09    3.116378e-11    1.507636e-09    2.717710e-10   -3.190000e+00    8.360770e-01    1.860762e+00
    5.813649e-01    3.340097e+00    9.239610e+01    5.212121e+09    1.640243e-09    3.005605e-11    1.507310e-09    2.716164e-10   -3.180000e+00    8.360770e-01    1.853217e+00
    5.860534e-01    3.417751e+00    9.185835e+01    5.225299e+09    1.639702e-09    2.898734e-11    1.506965e-09    2.714643e-10   -3.170000e+00    8.360770e-01    1.845674e+00
    5.907929e-01    3.498385e+00    9.131940e+01    5.238317e+09    1.639180e-09    2.795645e-11    1.506603e-09    2.713147e-10   -3.160000e+00    8.360770e-01    1.838131e+00
    5.955820e-01    3.582131e+00    9.077935e+01    5.251157e+09    1.638678e-09    2.696220e-11    1.506225e-09    2.711674e-10   -3.150000e+00    8.360770e-01    1.830589e+00
    6.004216e-01    3.669126e+00    9.023810e+01    5.263815e+09    1.638196e-09    2.600343e-11    1.505830e-09    2.710225e-10   -3.140000e+00    8.360770e-01    1.823047e+00
    6.053111e-01    3.759513e+00    8.969570e+01    5.276280e+09    1.637731e-09    2.507897e-11    1.505420e-09    2.708800e-10   -3.130000e+00    8.360770e-01    1.815505e+00
    6.102491e-01    3.853432e+00    8.915220e+01    5.288534e+09    1.637284e-09    2.418770e-11    1.504994e-09    2.707398e-10   -3.120000e+00    8.360770e-01    1.807964e+00
    6.152356e-01    3.951031e+00    8.860760e+01    5.300571e+09    1.636854e-09    2.332853e-11    1.504554e-09    2.706018e-10   -3.110000e+00    8.360770e-01    1.800424e+00
    6.202696e-01    4.052460e+00    8.806195e+01    5.312375e+09    1.636440e-09    2.250035e-11    1.504099e-09    2.704660e-10   -3.100000e+00    8.360770e-01    1.792884e+00
    6.253502e-01    4.157862e+00    8.751520e+01    5.323929e+09    1.636043e-09    2.170211e-11    1.503631e-09    2.703324e-10   -3.090000e+00    8.360770e-01    1.785344e+00
    6.304765e-01    4.267390e+00    8.696740e+01    5.335220e+09    1.635661e-09    2.093279e-11    1.503150e-09    2.702010e-10   -3.080000e+00    8.360770e-01    1.777805e+00
    6.356477e-01    4.381191e+00    8.641855e+01    5.346234e+09    1.635293e-09    2.019138e-11    1.502656e-09    2.700716e-10   -3.070000e+00    8.360770e-01    1.770266e+00
    6.408618e-01    4.499413e+00    8.586875e+01    5.356955e+09    1.634939e-09    1.947689e-11    1.502149e-09    2.699443e-10   -3.060000e+00    8.360770e-01    1.762727e+00
    6.461175e-01    4.622193e+00    8.531800e+01    5.367361e+09    1.634600e-09    1.878837e-11    1.501631e-09    2.698191e-10   -3.050000e+00    8.360770e-01    1.755189e+00
    6.514137e-01    4.749667e+00    8.476625e+01    5.377436e+09    1.634274e-09    1.812489e-11    1.501101e-09    2.696957e-10   -3.040000e+00    8.360770e-01    1.747651e+00
    6.567480e-01    4.881965e+00    8.421365e+01    5.387161e+09    1.633960e-09    1.748556e-11    1.500560e-09    2.695744e-10   -3.030000e+00    8.360770e-01    1.740114e+00
    6.621199e-01    5.019207e+00    8.366015e+01    5.396524e+09    1.633659e-09    1.686949e-11    1.500008e-09    2.694548e-10   -3.020000e+00    8.360770e-01    1.732577e+00
    6.675268e-01    5.161501e+00    8.310580e+01    5.405500e+09    1.633369e-09    1.627584e-11    1.499446e-09    2.693372e-10   -3.010000e+00    8.360770e-01    1.725040e+00
    6.729674e-01    5.308944e+00    8.255065e+01    5.414077e+09    1.633091e-09    1.570379e-11    1.498874e-09    2.692213e-10   -3.000000e+00    8.360770e-01    1.717503e+00
    6.784390e-01    5.461609e+00    8.199470e+01    5.422227e+09    1.632822e-09    1.515254e-11    1.498292e-09    2.691072e-10   -2.990000e+00    8.360770e-01    1.709967e+00
    6.839397e-01    5.619569e+00    8.143810e+01    5.429939e+09    1.632566e-09    1.462132e-11    1.497701e-09    2.689948e-10   -2.980000e+00    8.360770e-01    1.702431e+00
    6.894681e-01    5.782863e+00    8.088075e+01    5.437191e+09    1.632318e-09    1.410940e-11    1.497101e-09    2.688841e-10   -2.970000e+00    8.360770e-01    1.694895e+00
    6.950212e-01    5.951516e+00    8.032280e+01    5.443967e+09    1.632080e-09    1.361604e-11    1.496491e-09    2.687750e-10   -2.960000e+00    8.360770e-01    1.687359e+00
    7.005983e-01    6.125538e+00    7.976425e+01    5.450252e+09    1.631853e-09    1.314055e-11    1.495874e-09    2.686675e-10   -2.950000e+00    8.360770e-01    1.679824e+00
    7.061971e-01    6.304906e+00    7.920515e+01    5.456035e+09    1.631633e-09    1.268226e-11    1.495248e-09    2.685614e-10   -2.940000e+00    8.360770e-01    1.672289e+00
    7.118148e-01    6.489577e+00    7.864560e+01    5.461292e+09    1.631421e-09    1.224053e-11    1.494615e-09    2.684570e-10   -2.930000e+00    8.360770e-01    1.664754e+00
    7.174516e-01    6.679492e+00    7.808555e+01    5.466020e+09    1.631219e-09    1.181472e-11    1.493973e-09    2.683540e-10   -2.920000e+00    8.360770e-01    1.657219e+00
    7.231047e-01    6.874559e+00    7.752515e+01    5.470208e+09    1.631023e-09    1.140425e-11    1.493324e-09    2.682524e-10   -2.910000e+00    8.360770e-01    1.649684e+00
    7.287727e-01    7.074667e+00    7.696440e+01    5.473840e+09    1.630835e-09    1.100851e-11    1.492668e-09    2.681522e-10   -2.900000e+00    8.360770e-01    1.642149e+00
    7.344549e-01    7.279697e+00    7.640340e+01    5.476916e+09    1.630654e-09    1.062697e-11    1.492005e-09    2.680533e-10   -2.890000e+00    8.360770e-01    1.634614e+00
    7.401504e-01    7.489486e+00    7.584215e+01    5.479429e+09    1.630480e-09    1.025907e-11    1.491335e-09    2.679558e-10   -2.880000e+00    8.360770e-01    1.627080e+00
    7.458585e-01    7.703878e+00    7.528070e+01    5.481375e+09    1.630312e-09    9.904305e-12    1.490657e-09    2.678594e-10   -2.870000e+00    8.360770e-01    1.619545e+00
    7.515784e-01    7.922685e+00    7.471915e+01    5.482753e+09    1.630150e-09    9.562165e-12    1.489974e-09    2.677644e-10   -2.860000e+00    8.360770e-01    1.612010e+00
    7.573094e-01    8.145725e+00    7.415760e+01    5.483564e+09    1.629995e-09    9.232175e-12    1.489285e-09    2.676705e-10   -2.850000e+00    8.360770e-01    1.604476e+00
    7.630523e-01    8.372796e+00    7.359600e+01    5.483811e+09    1.629845e-09    8.913870e-12    1.488589e-09    2.675778e-10   -2.840000e+00    8.360770e-01    1.596941e+00
    7.688070e-01    8.603683e+00    7.303445e+01    5.483497e+09    1.629700e-09    8.606810e-12    1.487887e-09    2.674862e-10   -2.830000e+00    8.360770e-01    1.589407e+00
    7.745740e-01    8.838194e+00    7.247300e+01    5.482630e+09    1.629560e-09    8.310560e-12    1.487180e-09    2.673957e-10   -2.820000e+00    8.360770e-01    1.581872e+00
    7.803537e-01    9.076112e+00    7.191175e+01    5.481217e+09    1.629426e-09    8.024710e-12    1.486467e-09    2.673062e-10   -2.810000e+00    8.360770e-01    1.574337e+00
    7.861465e-01    9.317230e+00    7.135070e+01    5.479262e+09    1.629295e-09    7.748870e-12    1.485748e-09    2.672177e-10   -2.800000e+00    8.360770e-01    1.566802e+00
    7.919548e-01    9.561374e+00    7.078990e+01    5.476785e+09    1.629169e-09    7.482660e-12    1.485023e-09    2.671303e-10   -2.790000e+00    8.360770e-01    1.559267e+00
    7.977786e-01    9.808341e+00    7.022945e+01    5.473790e+09    1.629047e-09    7.225710e-12    1.484294e-09    2.670438e-10   -2.780000e+00    8.360770e-01    1.551732e+00
    8.036189e-01    1.005795e+01    6.966940e+01    5.470287e+09    1.628929e-09    6.977665e-12    1.483560e-09    2.669582e-10   -2.770000e+00    8.360770e-01    1.544197e+00
    8.094784e-01    1.031005e+01    6.910975e+01    5.466294e+09    1.628815e-09    6.738200e-12    1.482820e-09    2.668734e-10   -2.760000e+00    8.360770e-01    1.536662e+00
    8.153582e-01    1.056448e+01    6.855055e+01    5.461818e+09    1.628705e-09    6.506980e-12    1.482075e-09    2.667896e-10   -2.750000e+00    8.360770e-01    1.529126e+00
    8.212596e-01    1.082112e+01    6.799190e+01    5.456877e+09    1.628597e-09    6.283700e-12    1.481326e-09    2.667065e-10   -2.740000e+00    8.360770e-01    1.521591e+00
    8.271846e-01    1.107983e+01    6.743380e+01    5.451480e+09    1.628492e-09    6.068060e-12    1.480571e-09    2.666243e-10   -2.730000e+00    8.360770e-01    1.514055e+00
    8.331360e-01    1.134054e+01    6.687630e+01    5.445646e+09    1.628392e-09    5.859770e-12    1.479812e-09    2.665427e-10   -2.720000e+00    8.360770e-01    1.506519e+00
    8.391143e-01    1.160313e+01    6.631945e+01    5.439383e+09    1.628293e-09    5.658555e-12    1.479048e-09    2.664620e-10   -2.710000e+00    8.360770e-01    1.498982e+00
    8.451226e-01    1.186755e+01    6.576330e+01    5.432710e+09    1.628197e-09    5.464150e-12    1.478280e-09    2.663820e-10   -2.700000e+00    8.360770e-01    1.491445e+00
    8.511622e-01    1.213373e+01    6.520790e+01    5.425636e+09    1.628104e-09    5.276305e-12    1.477508e-09    2.663025e-10   -2.690000e+00    8.360770e-01    1.483908e+00
    8.572347e-01    1.240163e+01    6.465330e+01    5.418174e+09    1.628012e-09    5.094770e-12    1.476730e-09    2.662239e-10   -2.680000e+00    8.360770e-01    1.476371e+00
    8.633436e-01    1.267121e+01    6.409945e+01    5.410336e+09    1.627923e-09    4.919311e-12    1.475948e-09    2.661458e-10   -2.670000e+00    8.360770e-01    1.468833e+00
    8.694893e-01    1.294247e+01    6.354650e+01    5.402136e+09    1.627836e-09    4.749705e-12    1.475163e-09    2.660683e-10   -2.660000e+00    8.360770e-01    1.461295e+00
    8.756755e-01    1.321540e+01    6.299440e+01    5.393584e+09    1.627751e-09    4.585733e-12    1.474373e-09    2.659914e-10   -2.650000e+00    8.360770e-01    1.453757e+00
    8.819024e-01    1.349000e+01    6.244325e+01    5.384690e+09    1.627666e-09    4.427189e-12    1.473579e-09    2.659150e-10   -2.640000e+00    8.360770e-01    1.446218e+00
    8.881732e-01    1.376629e+01    6.189305e+01    5.375466e+09    1.627585e-09    4.273871e-12    1.472780e-09    2.658392e-10   -2.630000e+00    8.360770e-01    1.438678e+00
    8.944898e-01    1.404430e+01    6.134385e+01    5.365925e+09    1.627504e-09    4.125590e-12    1.471977e-09    2.657639e-10   -2.620000e+00    8.360770e-01    1.431139e+00
    9.008539e-01    1.432404e+01    6.079565e+01    5.356071e+09    1.627424e-09    3.982160e-12    1.471170e-09    2.656890e-10   -2.610000e+00    8.360770e-01    1.423598e+00
    9.072682e-01    1.460558e+01    6.024850e+01    5.345917e+09    1.627346e-09    3.843403e-12    1.470360e-09    2.656146e-10   -2.600000e+00    8.360770e-01    1.416058e+00
    9.137346e-01    1.488894e+01    5.970240e+01    5.335471e+09    1.627269e-09    3.709151e-12    1.469545e-09    2.655406e-10   -2.590000e+00    8.360770e-01    1.408516e+00
    9.202535e-01    1.517418e+01    5.915745e+01    5.324738e+09    1.627192e-09    3.579240e-12    1.468726e-09    2.654671e-10   -2.580000e+00    8.360770e-01    1.400975e+00
    9.268284e-01    1.546135e+01    5.861360e+01    5.313727e+09    1.627116e-09    3.453512e-12    1.467903e-09    2.653940e-10   -2.570000e+00    8.360770e-01    1.393432e+00
    9.334607e-01    1.575052e+01    5.807095e+01    5.302449e+09    1.627042e-09    3.331818e-12    1.467076e-09    2.653211e-10   -2.560000e+00    8.360770e-01    1.385889e+00
    9.401516e-01    1.604173e+01    5.752950e+01    5.290902e+09    1.626968e-09    3.214012e-12    1.466246e-09    2.652488e-10   -2.550000e+00    8.360770e-01    1.378346e+00
    9.469049e-01    1.633509e+01    5.698925e+01    5.279105e+09    1.626894e-09    3.099955e-12    1.465411e-09    2.651766e-10   -2.540000e+00    8.360770e-01    1.370802e+00
    9.537212e-01    1.663064e+01    5.645025e+01    5.267056e+09    1.626820e-09    2.989513e-12    1.464573e-09    2.651048e-10   -2.530000e+00    8.360770e-01    1.363257e+00
    9.606027e-01    1.692846e+01    5.591250e+01    5.254759e+09    1.626747e-09    2.882558e-12    1.463730e-09    2.650333e-10   -2.520000e+00    8.360770e-01    1.355712e+00
    9.675519e-01    1.722862e+01    5.537605e+01    5.242227e+09    1.626674e-09    2.778966e-12    1.462884e-09    2.649621e-10   -2.510000e+00    8.360770e-01    1.348165e+00
    9.745701e-01    1.753120e+01    5.484090e+01    5.229459e+09    1.626601e-09    2.678619e-12    1.462034e-09    2.648911e-10   -2.500000e+00    8.360770e-01    1.340619e+00
    9.816589e-01    1.783627e+01    5.430710e+01    5.216459e+09    1.626528e-09    2.581402e-12    1.461179e-09    2.648203e-10   -2.490000e+00    8.360770e-01    1.333071e+00
    9.888210e-01    1.814394e+01    5.377470e+01    5.203239e+09    1.626455e-09    2.487206e-12    1.460321e-09    2.647498e-10   -2.480000e+00    8.360770e-01    1.325523e+00
    9.960577e-01    1.845424e+01    5.324365e+01    5.189791e+09    1.626382e-09    2.395924e-12    1.459459e-09    2.646794e-10   -2.470000e+00    8.360770e-01    1.317973e+00
    1.003371e+00    1.876729e+01    5.271405e+01    5.176130e+09    1.626309e-09    2.307456e-12    1.458593e-09    2.646092e-10   -2.460000e+00    8.360770e-01    1.310423e+00
    1.010763e+00    1.908316e+01    5.218585e+01    5.162253e+09    1.626235e-09    2.221704e-12    1.457723e-09    2.645392e-10   -2.450000e+00    8.360770e-01    1.302873e+00
    1.018237e+00    1.940193e+01    5.165910e+01    5.148164e+09    1.626161e-09    2.138574e-12    1.456850e-09    2.644693e-10   -2.440000e+00    8.360770e-01    1.295321e+00
    1.025793e+00    1.972368e+01    5.113380e+01    5.133867e+09    1.626086e-09    2.057977e-12    1.455972e-09    2.643995e-10   -2.430000e+00    8.360770e-01    1.287769e+00
    1.033433e+00    2.004851e+01    5.061005e+01    5.119364e+09    1.626010e-09    1.979824e-12    1.455090e-09    2.643299e-10   -2.420000e+00    8.360770e-01    1.280215e+00
    1.041162e+00    2.037652e+01    5.008780e+01    5.104666e+09    1.625934e-09    1.904033e-12    1.454204e-09    2.642604e-10   -2.410000e+00    8.360770e-01    1.272661e+00
    1.048979e+00    2.070775e+01    4.956706e+01    5.089765e+09    1.625857e-09    1.830522e-12    1.453315e-09    2.641909e-10   -2.400000e+00    8.360770e-01    1.265106e+00
    1.056886e+00    2.104231e+01    4.904789e+01    5.074662e+09    1.625780e-09    1.759216e-12    1.452421e-09    2.641215e-10   -2.390000e+00    8.360770e-01    1.257549e+00
    1.064888e+00    2.138031e+01    4.853030e+01    5.059371e+09    1.625701e-09    1.690039e-12    1.451523e-09    2.640521e-10   -2.380000e+00    8.360770e-01    1.249992e+00
    1.072984e+00    2.172180e+01    4.801431e+01    5.043880e+09    1.625621e-09    1.622920e-12    1.450622e-09    2.639828e-10   -2.370000e+00    8.360770e-01    1.242434e+00
    1.081179e+00    2.206692e+01    4.749994e+01    5.028206e+09    1.625541e-09    1.557790e-12    1.449716e-09    2.639134e-10   -2.360000e+00    8.360770e-01    1.234874e+00
    1.089473e+00    2.241571e+01    4.698720e+01    5.012339e+09    1.625459e-09    1.494582e-12    1.448806e-09    2.638441e-10   -2.350000e+00    8.360770e-01    1.227314e+00
    1.097870e+00    2.276830e+01    4.647612e+01    4.996286e+09    1.625376e-09    1.433232e-12    1.447892e-09    2.637747e-10   -2.340000e+00    8.360770e-01    1.219752e+00
    1.106371e+00    2.312476e+01    4.596671e+01    4.980044e+09    1.625291e-09    1.373680e-12    1.446973e-09    2.637054e-10   -2.330000e+00    8.360770e-01    1.212190e+00
    1.114979e+00    2.348519e+01    4.545900e+01    4.963621e+09    1.625206e-09    1.315865e-12    1.446051e-09    2.636359e-10   -2.320000e+00    8.360770e-01    1.204626e+00
    1.123697e+00    2.384969e+01    4.495300e+01    4.947012e+09    1.625119e-09    1.259731e-12    1.445124e-09    2.635665e-10   -2.310000e+00    8.360770e-01    1.197061e+00
    1.132527e+00    2.421837e+01    4.444874e+01    4.930225e+09    1.625030e-09    1.205223e-12    1.444193e-09    2.634969e-10   -2.300000e+00    8.360770e-01    1.189495e+00
    1.141470e+00    2.459129e+01    4.394622e+01    4.913250e+09    1.624940e-09    1.152288e-12    1.443258e-09    2.634272e-10   -2.290000e+00    8.360770e-01    1.181928e+00
    1.150531e+00    2.496859e+01    4.344548e+01    4.896102e+09    1.624848e-09    1.100873e-12    1.442318e-09    2.633575e-10   -2.280000e+00    8.360770e-01    1.174359e+00
    1.159712e+00    2.535034e+01    4.294652e+01    4.878772e+09    1.624754e-09    1.050931e-12    1.441374e-09    2.632876e-10   -2.270000e+00    8.360770e-01    1.166789e+00
    1.169015e+00    2.573667e+01    4.244937e+01    4.861264e+09    1.624660e-09    1.002414e-12    1.440425e-09    2.632176e-10   -2.260000e+00    8.360770e-01    1.159218e+00
    1.178444e+00    2.612766e+01    4.195405e+01    4.843578e+09    1.624563e-09    9.552760e-13    1.439472e-09    2.631474e-10   -2.250000e+00    8.360770e-01    1.151645e+00
    1.188000e+00    2.652343e+01    4.146057e+01    4.825716e+09    1.624464e-09    9.094735e-13    1.438515e-09    2.630771e-10   -2.240000e+00    8.360770e-01    1.144071e+00
    1.197687e+00    2.692409e+01    4.096895e+01    4.807678e+09    1.624363e-09    8.649635e-13    1.437553e-09    2.630066e-10   -2.230000e+00    8.360770e-01    1.136496e+00
    1.207509e+00    2.732975e+01    4.047921e+01    4.789465e+09    1.624259e-09    8.217050e-13    1.436586e-09    2.629359e-10   -2.220000e+00    8.360770e-01    1.128919e+00
