# GF180MCU-D pfet_03v3 gm/ID Processed Lookup Table
# Corner: ss
# Temperature: 85C
# W = 2.0 um
# L = 5.5 um (5500 nm)
# Columns: gm/id [1/V]  gm/gds [V/V]  id/W [A/m]  ft [Hz]  Cgg/W [F/m]  Cgd/W [F/m]  Cgs/W [F/m]  Cdb/W [F/m]  vgs [V]  vth [V]  vdsat [V]
# vdsat = BSIM saturation voltage (|VDS|_sat, positive); use for headroom / saturation / cascode-bias calculations
#           gm/id          gm/gds            id/W              ft           Cgg/W           Cgd/W           Cgs/W           Cdb/W             vgs             vth           vdsat
    6.755556e-01    5.610223e+00    9.081680e+00    5.663159e+07    1.724204e-08    2.153408e-10    1.709459e-08    3.189148e-09   -3.300000e+00    8.313058e-01    1.832528e+00
    6.810233e-01    5.822106e+00    9.020330e+00    5.671457e+07    1.723892e-08    2.083474e-10    1.708733e-08    3.188246e-09   -3.290000e+00    8.313058e-01    1.824145e+00
    6.865407e-01    6.047545e+00    8.958820e+00    5.679408e+07    1.723591e-08    2.015977e-10    1.707994e-08    3.187346e-09   -3.280000e+00    8.313058e-01    1.815772e+00
    6.920969e-01    6.287645e+00    8.897280e+00    5.686996e+07    1.723302e-08    1.950832e-10    1.707242e-08    3.186447e-09   -3.270000e+00    8.313058e-01    1.807409e+00
    6.976924e-01    6.543595e+00    8.835670e+00    5.694191e+07    1.723025e-08    1.887959e-10    1.706477e-08    3.185550e-09   -3.260000e+00    8.313058e-01    1.799058e+00
    7.033254e-01    6.816699e+00    8.773990e+00    5.700975e+07    1.722759e-08    1.827276e-10    1.705700e-08    3.184656e-09   -3.250000e+00    8.313058e-01    1.790716e+00
    7.089914e-01    7.108345e+00    8.712250e+00    5.707309e+07    1.722503e-08    1.768710e-10    1.704911e-08    3.183763e-09   -3.240000e+00    8.313058e-01    1.782386e+00
    7.146884e-01    7.420070e+00    8.650455e+00    5.713178e+07    1.722257e-08    1.712185e-10    1.704112e-08    3.182873e-09   -3.230000e+00    8.313058e-01    1.774066e+00
    7.204127e-01    7.753510e+00    8.588605e+00    5.718545e+07    1.722022e-08    1.657628e-10    1.703300e-08    3.181985e-09   -3.220000e+00    8.313058e-01    1.765756e+00
    7.261605e-01    8.110444e+00    8.526710e+00    5.723381e+07    1.721796e-08    1.604969e-10    1.702479e-08    3.181102e-09   -3.210000e+00    8.313058e-01    1.757457e+00
    7.319283e-01    8.492767e+00    8.464770e+00    5.727659e+07    1.721578e-08    1.554142e-10    1.701647e-08    3.180221e-09   -3.200000e+00    8.313058e-01    1.749169e+00
    7.377118e-01    8.902543e+00    8.402800e+00    5.731348e+07    1.721369e-08    1.505079e-10    1.700805e-08    3.179343e-09   -3.190000e+00    8.313058e-01    1.740891e+00
    7.435077e-01    9.341960e+00    8.340795e+00    5.734419e+07    1.721170e-08    1.457719e-10    1.699953e-08    3.178468e-09   -3.180000e+00    8.313058e-01    1.732623e+00
    7.493112e-01    9.813363e+00    8.278770e+00    5.736843e+07    1.720978e-08    1.412000e-10    1.699092e-08    3.177597e-09   -3.170000e+00    8.313058e-01    1.724366e+00
    7.551173e-01    1.031924e+01    8.216730e+00    5.738587e+07    1.720793e-08    1.367862e-10    1.698222e-08    3.176729e-09   -3.160000e+00    8.313058e-01    1.716119e+00
    7.609226e-01    1.086222e+01    8.154680e+00    5.739626e+07    1.720616e-08    1.325248e-10    1.697343e-08    3.175866e-09   -3.150000e+00    8.313058e-01    1.707883e+00
    7.667223e-01    1.144509e+01    8.092630e+00    5.739934e+07    1.720446e-08    1.284104e-10    1.696456e-08    3.175005e-09   -3.140000e+00    8.313058e-01    1.699656e+00
    7.725124e-01    1.207077e+01    8.030590e+00    5.739489e+07    1.720283e-08    1.244375e-10    1.695560e-08    3.174150e-09   -3.130000e+00    8.313058e-01    1.691441e+00
    7.782887e-01    1.274231e+01    7.968560e+00    5.738263e+07    1.720126e-08    1.206010e-10    1.694657e-08    3.173297e-09   -3.120000e+00    8.313058e-01    1.683235e+00
    7.840475e-01    1.346288e+01    7.906555e+00    5.736243e+07    1.719975e-08    1.168960e-10    1.693746e-08    3.172449e-09   -3.110000e+00    8.313058e-01    1.675040e+00
    7.897854e-01    1.423574e+01    7.844580e+00    5.733412e+07    1.719831e-08    1.133176e-10    1.692826e-08    3.171603e-09   -3.100000e+00    8.313058e-01    1.666855e+00
    7.954988e-01    1.506425e+01    7.782645e+00    5.729757e+07    1.719692e-08    1.098613e-10    1.691901e-08    3.170763e-09   -3.090000e+00    8.313058e-01    1.658680e+00
    8.011847e-01    1.595180e+01    7.720760e+00    5.725269e+07    1.719559e-08    1.065225e-10    1.690967e-08    3.169926e-09   -3.080000e+00    8.313058e-01    1.650516e+00
    8.068413e-01    1.690187e+01    7.658935e+00    5.719947e+07    1.719430e-08    1.032971e-10    1.690027e-08    3.169093e-09   -3.070000e+00    8.313058e-01    1.642361e+00
    8.124665e-01    1.791789e+01    7.597175e+00    5.713790e+07    1.719307e-08    1.001809e-10    1.689079e-08    3.168264e-09   -3.060000e+00    8.313058e-01    1.634217e+00
    8.180589e-01    1.900328e+01    7.535490e+00    5.706801e+07    1.719188e-08    9.716980e-11    1.688126e-08    3.167438e-09   -3.050000e+00    8.313058e-01    1.626083e+00
    8.236172e-01    2.016138e+01    7.473885e+00    5.698981e+07    1.719074e-08    9.426010e-11    1.687165e-08    3.166617e-09   -3.040000e+00    8.313058e-01    1.617959e+00
    8.291412e-01    2.139551e+01    7.412380e+00    5.690354e+07    1.718965e-08    9.144805e-11    1.686199e-08    3.165799e-09   -3.030000e+00    8.313058e-01    1.609846e+00
    8.346313e-01    2.270875e+01    7.350970e+00    5.680927e+07    1.718859e-08    8.873010e-11    1.685227e-08    3.164985e-09   -3.020000e+00    8.313058e-01    1.601742e+00
    8.400868e-01    2.410409e+01    7.289675e+00    5.670716e+07    1.718757e-08    8.610285e-11    1.684249e-08    3.164175e-09   -3.010000e+00    8.313058e-01    1.593649e+00
    8.455100e-01    2.558428e+01    7.228495e+00    5.659748e+07    1.718659e-08    8.356295e-11    1.683264e-08    3.163368e-09   -3.000000e+00    8.313058e-01    1.585565e+00
    8.509021e-01    2.715185e+01    7.167440e+00    5.648043e+07    1.718564e-08    8.110730e-11    1.682274e-08    3.162565e-09   -2.990000e+00    8.313058e-01    1.577492e+00
    8.562651e-01    2.880907e+01    7.106520e+00    5.635631e+07    1.718473e-08    7.873275e-11    1.681279e-08    3.161765e-09   -2.980000e+00    8.313058e-01    1.569428e+00
    8.615994e-01    3.055785e+01    7.045745e+00    5.622533e+07    1.718385e-08    7.643650e-11    1.680278e-08    3.160968e-09   -2.970000e+00    8.313058e-01    1.561375e+00
    8.669105e-01    3.239988e+01    6.985110e+00    5.608783e+07    1.718300e-08    7.421555e-11    1.679272e-08    3.160175e-09   -2.960000e+00    8.313058e-01    1.553331e+00
    8.721983e-01    3.433643e+01    6.924635e+00    5.594408e+07    1.718218e-08    7.206735e-11    1.678260e-08    3.159385e-09   -2.950000e+00    8.313058e-01    1.545298e+00
    8.774671e-01    3.636847e+01    6.864320e+00    5.579438e+07    1.718138e-08    6.998915e-11    1.677244e-08    3.158599e-09   -2.940000e+00    8.313058e-01    1.537274e+00
    8.827198e-01    3.849661e+01    6.804175e+00    5.563907e+07    1.718061e-08    6.797850e-11    1.676222e-08    3.157815e-09   -2.930000e+00    8.313058e-01    1.529260e+00
    8.879593e-01    4.072103e+01    6.744200e+00    5.547841e+07    1.717986e-08    6.603300e-11    1.675195e-08    3.157034e-09   -2.920000e+00    8.313058e-01    1.521257e+00
    8.931887e-01    4.304164e+01    6.684405e+00    5.531269e+07    1.717914e-08    6.415020e-11    1.674163e-08    3.156257e-09   -2.910000e+00    8.313058e-01    1.513263e+00
    8.984126e-01    4.545800e+01    6.624790e+00    5.514228e+07    1.717842e-08    6.232800e-11    1.673128e-08    3.155482e-09   -2.900000e+00    8.313058e-01    1.505279e+00
    9.036315e-01    4.796920e+01    6.565370e+00    5.496733e+07    1.717774e-08    6.056415e-11    1.672087e-08    3.154710e-09   -2.890000e+00    8.313058e-01    1.497304e+00
    9.088515e-01    5.057422e+01    6.506140e+00    5.478824e+07    1.717707e-08    5.885660e-11    1.671040e-08    3.153940e-09   -2.880000e+00    8.313058e-01    1.489340e+00
    9.140747e-01    5.327164e+01    6.447110e+00    5.460523e+07    1.717642e-08    5.720335e-11    1.669991e-08    3.153173e-09   -2.870000e+00    8.313058e-01    1.481385e+00
    9.193038e-01    5.605965e+01    6.388280e+00    5.441850e+07    1.717579e-08    5.560245e-11    1.668936e-08    3.152408e-09   -2.860000e+00    8.313058e-01    1.473440e+00
    9.245425e-01    5.893641e+01    6.329655e+00    5.422833e+07    1.717516e-08    5.405210e-11    1.667877e-08    3.151646e-09   -2.850000e+00    8.313058e-01    1.465505e+00
    9.297938e-01    6.189975e+01    6.271240e+00    5.403496e+07    1.717455e-08    5.255050e-11    1.666813e-08    3.150885e-09   -2.840000e+00    8.313058e-01    1.457580e+00
    9.350607e-01    6.494730e+01    6.213035e+00    5.383856e+07    1.717396e-08    5.109595e-11    1.665745e-08    3.150127e-09   -2.830000e+00    8.313058e-01    1.449664e+00
    9.403449e-01    6.807661e+01    6.155050e+00    5.363935e+07    1.717337e-08    4.968681e-11    1.664673e-08    3.149371e-09   -2.820000e+00    8.313058e-01    1.441758e+00
    9.456504e-01    7.128505e+01    6.097280e+00    5.343748e+07    1.717279e-08    4.832146e-11    1.663596e-08    3.148617e-09   -2.810000e+00    8.313058e-01    1.433862e+00
    9.509796e-01    7.456994e+01    6.039730e+00    5.323318e+07    1.717222e-08    4.699840e-11    1.662516e-08    3.147865e-09   -2.800000e+00    8.313058e-01    1.425975e+00
    9.563345e-01    7.792852e+01    5.982410e+00    5.302661e+07    1.717166e-08    4.571614e-11    1.661431e-08    3.147114e-09   -2.790000e+00    8.313058e-01    1.418098e+00
    9.617185e-01    8.135798e+01    5.925310e+00    5.281787e+07    1.717111e-08    4.447329e-11    1.660341e-08    3.146364e-09   -2.780000e+00    8.313058e-01    1.410231e+00
    9.671327e-01    8.485550e+01    5.868440e+00    5.260712e+07    1.717055e-08    4.326849e-11    1.659248e-08    3.145616e-09   -2.770000e+00    8.313058e-01    1.402373e+00
    9.725799e-01    8.841829e+01    5.811800e+00    5.239448e+07    1.717001e-08    4.210042e-11    1.658151e-08    3.144870e-09   -2.760000e+00    8.313058e-01    1.394525e+00
    9.780632e-01    9.204363e+01    5.755390e+00    5.218010e+07    1.716947e-08    4.096782e-11    1.657050e-08    3.144124e-09   -2.750000e+00    8.313058e-01    1.386686e+00
    9.835837e-01    9.572882e+01    5.699215e+00    5.196407e+07    1.716894e-08    3.986949e-11    1.655943e-08    3.143381e-09   -2.740000e+00    8.313058e-01    1.378857e+00
    9.891428e-01    9.947128e+01    5.643280e+00    5.174649e+07    1.716840e-08    3.880426e-11    1.654834e-08    3.142637e-09   -2.730000e+00    8.313058e-01    1.371037e+00
    9.947446e-01    1.032685e+02    5.587575e+00    5.152747e+07    1.716787e-08    3.777100e-11    1.653721e-08    3.141894e-09   -2.720000e+00    8.313058e-01    1.363227e+00
    1.000389e+00    1.071180e+02    5.532115e+00    5.130708e+07    1.716733e-08    3.676863e-11    1.652602e-08    3.141153e-09   -2.710000e+00    8.313058e-01    1.355426e+00
    1.006079e+00    1.110175e+02    5.476890e+00    5.108543e+07    1.716680e-08    3.579611e-11    1.651481e-08    3.140413e-09   -2.700000e+00    8.313058e-01    1.347635e+00
    1.011815e+00    1.149648e+02    5.421910e+00    5.086252e+07    1.716626e-08    3.485244e-11    1.650355e-08    3.139672e-09   -2.690000e+00    8.313058e-01    1.339853e+00
    1.017600e+00    1.189578e+02    5.367175e+00    5.063849e+07    1.716572e-08    3.393664e-11    1.649225e-08    3.138932e-09   -2.680000e+00    8.313058e-01    1.332081e+00
    1.023435e+00    1.229947e+02    5.312680e+00    5.041339e+07    1.716518e-08    3.304780e-11    1.648091e-08    3.138193e-09   -2.670000e+00    8.313058e-01    1.324318e+00
    1.029323e+00    1.270736e+02    5.258430e+00    5.018726e+07    1.716464e-08    3.218501e-11    1.646954e-08    3.137453e-09   -2.660000e+00    8.313058e-01    1.316564e+00
    1.035265e+00    1.311929e+02    5.204425e+00    4.996016e+07    1.716409e-08    3.134742e-11    1.645812e-08    3.136713e-09   -2.650000e+00    8.313058e-01    1.308820e+00
    1.041262e+00    1.353510e+02    5.150670e+00    4.973212e+07    1.716354e-08    3.053418e-11    1.644667e-08    3.135975e-09   -2.640000e+00    8.313058e-01    1.301085e+00
    1.047316e+00    1.395467e+02    5.097165e+00    4.950326e+07    1.716298e-08    2.974449e-11    1.643517e-08    3.135235e-09   -2.630000e+00    8.313058e-01    1.293360e+00
    1.053428e+00    1.437785e+02    5.043905e+00    4.927353e+07    1.716240e-08    2.897759e-11    1.642363e-08    3.134495e-09   -2.620000e+00    8.313058e-01    1.285644e+00
    1.059600e+00    1.480455e+02    4.990896e+00    4.904301e+07    1.716183e-08    2.823273e-11    1.641205e-08    3.133755e-09   -2.610000e+00    8.313058e-01    1.277937e+00
    1.065835e+00    1.523467e+02    4.938138e+00    4.881175e+07    1.716125e-08    2.750919e-11    1.640043e-08    3.133015e-09   -2.600000e+00    8.313058e-01    1.270239e+00
    1.072132e+00    1.566810e+02    4.885631e+00    4.857971e+07    1.716066e-08    2.680628e-11    1.638877e-08    3.132274e-09   -2.590000e+00    8.313058e-01    1.262551e+00
    1.078494e+00    1.610480e+02    4.833377e+00    4.834704e+07    1.716006e-08    2.612334e-11    1.637707e-08    3.131531e-09   -2.580000e+00    8.313058e-01    1.254871e+00
    1.084923e+00    1.654469e+02    4.781376e+00    4.811368e+07    1.715945e-08    2.545971e-11    1.636532e-08    3.130789e-09   -2.570000e+00    8.313058e-01    1.247201e+00
    1.091420e+00    1.698771e+02    4.729629e+00    4.787969e+07    1.715883e-08    2.481479e-11    1.635354e-08    3.130046e-09   -2.560000e+00    8.313058e-01    1.239541e+00
    1.097985e+00    1.743383e+02    4.678136e+00    4.764505e+07    1.715820e-08    2.418797e-11    1.634172e-08    3.129301e-09   -2.550000e+00    8.313058e-01    1.231889e+00
    1.104622e+00    1.788302e+02    4.626899e+00    4.740984e+07    1.715756e-08    2.357866e-11    1.632985e-08    3.128556e-09   -2.540000e+00    8.313058e-01    1.224247e+00
    1.111331e+00    1.833526e+02    4.575916e+00    4.717403e+07    1.715690e-08    2.298634e-11    1.631794e-08    3.127809e-09   -2.530000e+00    8.313058e-01    1.216613e+00
    1.118115e+00    1.879053e+02    4.525192e+00    4.693769e+07    1.715623e-08    2.241045e-11    1.630598e-08    3.127060e-09   -2.520000e+00    8.313058e-01    1.208989e+00
    1.124974e+00    1.924882e+02    4.474723e+00    4.670076e+07    1.715555e-08    2.185047e-11    1.629399e-08    3.126310e-09   -2.510000e+00    8.313058e-01    1.201374e+00
    1.131910e+00    1.971017e+02    4.424512e+00    4.646335e+07    1.715485e-08    2.130590e-11    1.628195e-08    3.125559e-09   -2.500000e+00    8.313058e-01    1.193768e+00
    1.138926e+00    2.017457e+02    4.374560e+00    4.622544e+07    1.715414e-08    2.077628e-11    1.626987e-08    3.124806e-09   -2.490000e+00    8.313058e-01    1.186171e+00
    1.146022e+00    2.064203e+02    4.324866e+00    4.598702e+07    1.715341e-08    2.026112e-11    1.625775e-08    3.124051e-09   -2.480000e+00    8.313058e-01    1.178583e+00
    1.153200e+00    2.111259e+02    4.275433e+00    4.574812e+07    1.715267e-08    1.975998e-11    1.624559e-08    3.123294e-09   -2.470000e+00    8.313058e-01    1.171004e+00
    1.160463e+00    2.158628e+02    4.226259e+00    4.550875e+07    1.715191e-08    1.927243e-11    1.623338e-08    3.122535e-09   -2.460000e+00    8.313058e-01    1.163435e+00
    1.167811e+00    2.206315e+02    4.177345e+00    4.526893e+07    1.715113e-08    1.879804e-11    1.622112e-08    3.121774e-09   -2.450000e+00    8.313058e-01    1.155874e+00
    1.175246e+00    2.254324e+02    4.128692e+00    4.502865e+07    1.715034e-08    1.833642e-11    1.620882e-08    3.121011e-09   -2.440000e+00    8.313058e-01    1.148322e+00
    1.182771e+00    2.302660e+02    4.080300e+00    4.478793e+07    1.714952e-08    1.788717e-11    1.619647e-08    3.120245e-09   -2.430000e+00    8.313058e-01    1.140779e+00
    1.190387e+00    2.351328e+02    4.032171e+00    4.454677e+07    1.714869e-08    1.744992e-11    1.618407e-08    3.119477e-09   -2.420000e+00    8.313058e-01    1.133245e+00
    1.198096e+00    2.400335e+02    3.984303e+00    4.430521e+07    1.714783e-08    1.702430e-11    1.617164e-08    3.118706e-09   -2.410000e+00    8.313058e-01    1.125720e+00
    1.205899e+00    2.449688e+02    3.936699e+00    4.406323e+07    1.714696e-08    1.660997e-11    1.615916e-08    3.117932e-09   -2.400000e+00    8.313058e-01    1.118204e+00
    1.213800e+00    2.499394e+02    3.889358e+00    4.382083e+07    1.714607e-08    1.620657e-11    1.614662e-08    3.117156e-09   -2.390000e+00    8.313058e-01    1.110697e+00
    1.221799e+00    2.549460e+02    3.842281e+00    4.357803e+07    1.714515e-08    1.581379e-11    1.613404e-08    3.116377e-09   -2.380000e+00    8.313058e-01    1.103198e+00
    1.229898e+00    2.599894e+02    3.795469e+00    4.333483e+07    1.714422e-08    1.543129e-11    1.612141e-08    3.115594e-09   -2.370000e+00    8.313058e-01    1.095709e+00
    1.238101e+00    2.650705e+02    3.748921e+00    4.309126e+07    1.714325e-08    1.505880e-11    1.610873e-08    3.114808e-09   -2.360000e+00    8.313058e-01    1.088228e+00
    1.246408e+00    2.701902e+02    3.702638e+00    4.284728e+07    1.714227e-08    1.469599e-11    1.609600e-08    3.114019e-09   -2.350000e+00    8.313058e-01    1.080756e+00
    1.254822e+00    2.753493e+02    3.656621e+00    4.260293e+07    1.714126e-08    1.434260e-11    1.608323e-08    3.113227e-09   -2.340000e+00    8.313058e-01    1.073293e+00
    1.263346e+00    2.805488e+02    3.610870e+00    4.235821e+07    1.714023e-08    1.399832e-11    1.607040e-08    3.112430e-09   -2.330000e+00    8.313058e-01    1.065839e+00
    1.271980e+00    2.857897e+02    3.565386e+00    4.211310e+07    1.713917e-08    1.366292e-11    1.605752e-08    3.111631e-09   -2.320000e+00    8.313058e-01    1.058394e+00
    1.280729e+00    2.910730e+02    3.520168e+00    4.186764e+07    1.713809e-08    1.333611e-11    1.604459e-08    3.110827e-09   -2.310000e+00    8.313058e-01    1.050957e+00
    1.289594e+00    2.963996e+02    3.475218e+00    4.162180e+07    1.713697e-08    1.301766e-11    1.603161e-08    3.110020e-09   -2.300000e+00    8.313058e-01    1.043529e+00
    1.298577e+00    3.017709e+02    3.430536e+00    4.137561e+07    1.713584e-08    1.270731e-11    1.601857e-08    3.109208e-09   -2.290000e+00    8.313058e-01    1.036110e+00
    1.307681e+00    3.071878e+02    3.386122e+00    4.112905e+07    1.713467e-08    1.240484e-11    1.600548e-08    3.108392e-09   -2.280000e+00    8.313058e-01    1.028699e+00
    1.316909e+00    3.126515e+02    3.341976e+00    4.088214e+07    1.713348e-08    1.211002e-11    1.599233e-08    3.107572e-09   -2.270000e+00    8.313058e-01    1.021297e+00
    1.326262e+00    3.181631e+02    3.298100e+00    4.063488e+07    1.713225e-08    1.182263e-11    1.597914e-08    3.106747e-09   -2.260000e+00    8.313058e-01    1.013904e+00
    1.335745e+00    3.237239e+02    3.254494e+00    4.038726e+07    1.713101e-08    1.154246e-11    1.596588e-08    3.105919e-09   -2.250000e+00    8.313058e-01    1.006519e+00
    1.345359e+00    3.293350e+02    3.211157e+00    4.013928e+07    1.712973e-08    1.126929e-11    1.595257e-08    3.105084e-09   -2.240000e+00    8.313058e-01    9.991432e-01
    1.355108e+00    3.349977e+02    3.168091e+00    3.989096e+07    1.712841e-08    1.100294e-11    1.593920e-08    3.104246e-09   -2.230000e+00    8.313058e-01    9.917758e-01
    1.364994e+00    3.407134e+02    3.125295e+00    3.964230e+07    1.712706e-08    1.074321e-11    1.592577e-08    3.103402e-09   -2.220000e+00    8.313058e-01    9.844171e-01
