# GF180MCU-D pfet_03v3 gm/ID Processed Lookup Table
# Corner: typical
# Temperature: 85C
# W = 2.0 um
# L = 6 um (6000 nm)
# Columns: gm/id [1/V]  gm/gds [V/V]  id/W [A/m]  ft [Hz]  Cgg/W [F/m]  Cgd/W [F/m]  Cgs/W [F/m]  Cdb/W [F/m]  vgs [V]  vth [V]  vdsat [V]
# vdsat = BSIM saturation voltage (|VDS|_sat, positive); use for headroom / saturation / cascode-bias calculations
#           gm/id          gm/gds            id/W              ft           Cgg/W           Cgd/W           Cgs/W           Cdb/W             vgs             vth           vdsat
    6.001285e-01    3.558758e+00    9.641635e+00    4.658825e+07    1.976691e-08    4.344188e-10    1.964894e-08    3.505215e-09   -3.300000e+00    7.090511e-01    1.958031e+00
    6.048879e-01    3.654807e+00    9.583775e+00    4.669225e+07    1.976000e-08    4.197500e-10    1.964442e-08    3.504258e-09   -3.290000e+00    7.090511e-01    1.949476e+00
    6.097104e-01    3.755595e+00    9.525695e+00    4.679505e+07    1.975334e-08    4.055757e-10    1.963963e-08    3.503291e-09   -3.280000e+00    7.090511e-01    1.940931e+00
    6.145844e-01    3.861445e+00    9.467560e+00    4.689648e+07    1.974693e-08    3.918819e-10    1.963457e-08    3.502315e-09   -3.270000e+00    7.090511e-01    1.932397e+00
    6.195142e-01    3.972719e+00    9.409325e+00    4.699656e+07    1.974075e-08    3.786550e-10    1.962927e-08    3.501333e-09   -3.260000e+00    7.090511e-01    1.923873e+00
    6.244993e-01    4.089796e+00    9.350980e+00    4.709513e+07    1.973482e-08    3.658814e-10    1.962371e-08    3.500344e-09   -3.250000e+00    7.090511e-01    1.915360e+00
    6.295406e-01    4.213105e+00    9.292530e+00    4.719220e+07    1.972912e-08    3.535476e-10    1.961792e-08    3.499349e-09   -3.240000e+00    7.090511e-01    1.906857e+00
    6.346370e-01    4.343100e+00    9.233980e+00    4.728764e+07    1.972363e-08    3.416401e-10    1.961189e-08    3.498349e-09   -3.230000e+00    7.090511e-01    1.898364e+00
    6.397888e-01    4.480276e+00    9.175325e+00    4.738136e+07    1.971835e-08    3.301459e-10    1.960564e-08    3.497345e-09   -3.220000e+00    7.090511e-01    1.889882e+00
    6.449944e-01    4.625171e+00    9.116575e+00    4.747323e+07    1.971329e-08    3.190519e-10    1.959917e-08    3.496337e-09   -3.210000e+00    7.090511e-01    1.881410e+00
    6.502549e-01    4.778385e+00    9.057725e+00    4.756320e+07    1.970842e-08    3.083456e-10    1.959249e-08    3.495327e-09   -3.200000e+00    7.090511e-01    1.872948e+00
    6.555687e-01    4.940552e+00    8.998775e+00    4.765109e+07    1.970375e-08    2.980144e-10    1.958562e-08    3.494313e-09   -3.190000e+00    7.090511e-01    1.864496e+00
    6.609342e-01    5.112372e+00    8.939740e+00    4.773679e+07    1.969927e-08    2.880460e-10    1.957854e-08    3.493299e-09   -3.180000e+00    7.090511e-01    1.856055e+00
    6.663516e-01    5.294607e+00    8.880605e+00    4.782016e+07    1.969496e-08    2.784287e-10    1.957127e-08    3.492283e-09   -3.170000e+00    7.090511e-01    1.847624e+00
    6.718185e-01    5.488091e+00    8.821385e+00    4.790102e+07    1.969084e-08    2.691505e-10    1.956382e-08    3.491266e-09   -3.160000e+00    7.090511e-01    1.839203e+00
    6.773340e-01    5.693731e+00    8.762080e+00    4.797925e+07    1.968688e-08    2.602001e-10    1.955620e-08    3.490249e-09   -3.150000e+00    7.090511e-01    1.830793e+00
    6.828969e-01    5.912514e+00    8.702690e+00    4.805468e+07    1.968308e-08    2.515663e-10    1.954840e-08    3.489233e-09   -3.140000e+00    7.090511e-01    1.822392e+00
    6.885038e-01    6.145512e+00    8.643220e+00    4.812706e+07    1.967944e-08    2.432383e-10    1.954043e-08    3.488217e-09   -3.130000e+00    7.090511e-01    1.814002e+00
    6.941531e-01    6.393896e+00    8.583675e+00    4.819621e+07    1.967596e-08    2.352055e-10    1.953231e-08    3.487202e-09   -3.120000e+00    7.090511e-01    1.805622e+00
    6.998430e-01    6.658946e+00    8.524055e+00    4.826196e+07    1.967261e-08    2.274576e-10    1.952403e-08    3.486188e-09   -3.110000e+00    7.090511e-01    1.797252e+00
    7.055704e-01    6.942043e+00    8.464365e+00    4.832406e+07    1.966942e-08    2.199846e-10    1.951560e-08    3.485176e-09   -3.100000e+00    7.090511e-01    1.788891e+00
    7.113316e-01    7.244692e+00    8.404610e+00    4.838225e+07    1.966635e-08    2.127767e-10    1.950703e-08    3.484167e-09   -3.090000e+00    7.090511e-01    1.780541e+00
    7.171249e-01    7.568532e+00    8.344795e+00    4.843638e+07    1.966341e-08    2.058246e-10    1.949832e-08    3.483160e-09   -3.080000e+00    7.090511e-01    1.772202e+00
    7.229446e-01    7.915318e+00    8.284930e+00    4.848608e+07    1.966060e-08    1.991191e-10    1.948946e-08    3.482156e-09   -3.070000e+00    7.090511e-01    1.763872e+00
    7.287888e-01    8.286973e+00    8.225010e+00    4.853116e+07    1.965792e-08    1.926513e-10    1.948049e-08    3.481154e-09   -3.060000e+00    7.090511e-01    1.755552e+00
    7.346536e-01    8.685550e+00    8.165045e+00    4.857141e+07    1.965535e-08    1.864128e-10    1.947139e-08    3.480156e-09   -3.050000e+00    7.090511e-01    1.747242e+00
    7.405337e-01    9.113264e+00    8.105040e+00    4.860644e+07    1.965289e-08    1.803950e-10    1.946216e-08    3.479160e-09   -3.040000e+00    7.090511e-01    1.738942e+00
    7.464259e-01    9.572505e+00    8.045005e+00    4.863610e+07    1.965053e-08    1.745901e-10    1.945281e-08    3.478169e-09   -3.030000e+00    7.090511e-01    1.730652e+00
    7.523252e-01    1.006582e+01    7.984945e+00    4.866010e+07    1.964828e-08    1.689903e-10    1.944335e-08    3.477181e-09   -3.020000e+00    7.090511e-01    1.722372e+00
    7.582279e-01    1.059591e+01    7.924860e+00    4.867820e+07    1.964613e-08    1.635880e-10    1.943379e-08    3.476197e-09   -3.010000e+00    7.090511e-01    1.714101e+00
    7.641285e-01    1.116566e+01    7.864770e+00    4.869014e+07    1.964408e-08    1.583761e-10    1.942410e-08    3.475217e-09   -3.000000e+00    7.090511e-01    1.705841e+00
    7.700242e-01    1.177814e+01    7.804670e+00    4.869575e+07    1.964210e-08    1.533474e-10    1.941433e-08    3.474241e-09   -2.990000e+00    7.090511e-01    1.697591e+00
    7.759089e-01    1.243655e+01    7.744575e+00    4.869474e+07    1.964023e-08    1.484952e-10    1.940444e-08    3.473268e-09   -2.980000e+00    7.090511e-01    1.689350e+00
    7.817799e-01    1.314425e+01    7.684490e+00    4.868700e+07    1.963843e-08    1.438131e-10    1.939447e-08    3.472300e-09   -2.970000e+00    7.090511e-01    1.681119e+00
    7.876332e-01    1.390478e+01    7.624425e+00    4.867237e+07    1.963671e-08    1.392947e-10    1.938439e-08    3.471337e-09   -2.960000e+00    7.090511e-01    1.672898e+00
    7.934645e-01    1.472175e+01    7.564390e+00    4.865071e+07    1.963507e-08    1.349340e-10    1.937423e-08    3.470377e-09   -2.950000e+00    7.090511e-01    1.664687e+00
    7.992708e-01    1.559892e+01    7.504390e+00    4.862189e+07    1.963350e-08    1.307251e-10    1.936397e-08    3.469421e-09   -2.940000e+00    7.090511e-01    1.656486e+00
    8.050509e-01    1.654014e+01    7.444430e+00    4.858593e+07    1.963200e-08    1.266624e-10    1.935363e-08    3.468470e-09   -2.930000e+00    7.090511e-01    1.648294e+00
    8.107997e-01    1.754927e+01    7.384530e+00    4.854268e+07    1.963056e-08    1.227404e-10    1.934321e-08    3.467524e-09   -2.920000e+00    7.090511e-01    1.640112e+00
    8.165184e-01    1.863028e+01    7.324685e+00    4.849228e+07    1.962920e-08    1.189540e-10    1.933270e-08    3.466580e-09   -2.910000e+00    7.090511e-01    1.631940e+00
    8.222030e-01    1.978706e+01    7.264915e+00    4.843466e+07    1.962789e-08    1.152981e-10    1.932211e-08    3.465643e-09   -2.900000e+00    7.090511e-01    1.623778e+00
    8.278534e-01    2.102351e+01    7.205225e+00    4.836992e+07    1.962663e-08    1.117679e-10    1.931145e-08    3.464708e-09   -2.890000e+00    7.090511e-01    1.615625e+00
    8.334707e-01    2.234344e+01    7.145620e+00    4.829822e+07    1.962543e-08    1.083586e-10    1.930071e-08    3.463779e-09   -2.880000e+00    7.090511e-01    1.607481e+00
    8.390536e-01    2.375055e+01    7.086115e+00    4.821966e+07    1.962429e-08    1.050659e-10    1.928989e-08    3.462853e-09   -2.870000e+00    7.090511e-01    1.599348e+00
    8.446037e-01    2.524838e+01    7.026710e+00    4.813439e+07    1.962319e-08    1.018854e-10    1.927900e-08    3.461931e-09   -2.860000e+00    7.090511e-01    1.591224e+00
    8.501217e-01    2.684028e+01    6.967420e+00    4.804264e+07    1.962214e-08    9.881280e-11    1.926805e-08    3.461013e-09   -2.850000e+00    7.090511e-01    1.583110e+00
    8.556089e-01    2.852934e+01    6.908250e+00    4.794455e+07    1.962114e-08    9.584435e-11    1.925702e-08    3.460099e-09   -2.840000e+00    7.090511e-01    1.575005e+00
    8.610672e-01    3.031843e+01    6.849210e+00    4.784040e+07    1.962017e-08    9.297605e-11    1.924593e-08    3.459189e-09   -2.830000e+00    7.090511e-01    1.566910e+00
    8.665007e-01    3.221013e+01    6.790300e+00    4.773045e+07    1.961926e-08    9.020430e-11    1.923477e-08    3.458283e-09   -2.820000e+00    7.090511e-01    1.558824e+00
    8.719096e-01    3.420660e+01    6.731535e+00    4.761489e+07    1.961837e-08    8.752545e-11    1.922355e-08    3.457381e-09   -2.810000e+00    7.090511e-01    1.550748e+00
    8.772980e-01    3.630975e+01    6.672915e+00    4.749399e+07    1.961753e-08    8.493610e-11    1.921227e-08    3.456482e-09   -2.800000e+00    7.090511e-01    1.542681e+00
    8.826691e-01    3.852111e+01    6.614455e+00    4.736810e+07    1.961671e-08    8.243300e-11    1.920092e-08    3.455587e-09   -2.790000e+00    7.090511e-01    1.534624e+00
    8.880257e-01    4.084175e+01    6.556150e+00    4.723738e+07    1.961593e-08    8.001300e-11    1.918951e-08    3.454695e-09   -2.780000e+00    7.090511e-01    1.526576e+00
    8.933705e-01    4.327240e+01    6.498015e+00    4.710210e+07    1.961518e-08    7.767300e-11    1.917804e-08    3.453806e-09   -2.770000e+00    7.090511e-01    1.518538e+00
    8.987073e-01    4.581337e+01    6.440050e+00    4.696253e+07    1.961445e-08    7.541015e-11    1.916652e-08    3.452922e-09   -2.760000e+00    7.090511e-01    1.510509e+00
    9.040403e-01    4.846466e+01    6.382260e+00    4.681895e+07    1.961376e-08    7.322155e-11    1.915494e-08    3.452039e-09   -2.750000e+00    7.090511e-01    1.502490e+00
    9.093713e-01    5.122579e+01    6.324655e+00    4.667157e+07    1.961308e-08    7.110460e-11    1.914330e-08    3.451160e-09   -2.740000e+00    7.090511e-01    1.494480e+00
    9.147048e-01    5.409595e+01    6.267235e+00    4.652064e+07    1.961243e-08    6.905660e-11    1.913161e-08    3.450284e-09   -2.730000e+00    7.090511e-01    1.486479e+00
    9.200435e-01    5.707399e+01    6.210005e+00    4.636636e+07    1.961180e-08    6.707510e-11    1.911985e-08    3.449411e-09   -2.720000e+00    7.090511e-01    1.478488e+00
    9.253913e-01    6.015844e+01    6.152965e+00    4.620894e+07    1.961119e-08    6.515775e-11    1.910805e-08    3.448540e-09   -2.710000e+00    7.090511e-01    1.470506e+00
    9.307503e-01    6.334748e+01    6.096125e+00    4.604858e+07    1.961060e-08    6.330215e-11    1.909620e-08    3.447672e-09   -2.700000e+00    7.090511e-01    1.462534e+00
    9.361237e-01    6.663909e+01    6.039490e+00    4.588550e+07    1.961002e-08    6.150615e-11    1.908429e-08    3.446806e-09   -2.690000e+00    7.090511e-01    1.454570e+00
    9.415157e-01    7.003101e+01    5.983055e+00    4.571985e+07    1.960947e-08    5.976760e-11    1.907232e-08    3.445942e-09   -2.680000e+00    7.090511e-01    1.446616e+00
    9.469294e-01    7.352072e+01    5.926825e+00    4.555185e+07    1.960892e-08    5.808440e-11    1.906031e-08    3.445081e-09   -2.670000e+00    7.090511e-01    1.438672e+00
    9.523643e-01    7.710543e+01    5.870810e+00    4.538155e+07    1.960839e-08    5.645465e-11    1.904824e-08    3.444221e-09   -2.660000e+00    7.090511e-01    1.430736e+00
    9.578272e-01    8.078259e+01    5.815005e+00    4.520922e+07    1.960787e-08    5.487640e-11    1.903613e-08    3.443364e-09   -2.650000e+00    7.090511e-01    1.422810e+00
    9.633175e-01    8.454896e+01    5.759415e+00    4.503486e+07    1.960736e-08    5.334785e-11    1.902396e-08    3.442508e-09   -2.640000e+00    7.090511e-01    1.414893e+00
    9.688396e-01    8.840178e+01    5.704040e+00    4.485870e+07    1.960686e-08    5.186725e-11    1.901174e-08    3.441654e-09   -2.630000e+00    7.090511e-01    1.406985e+00
    9.743950e-01    9.233793e+01    5.648890e+00    4.468084e+07    1.960636e-08    5.043295e-11    1.899948e-08    3.440803e-09   -2.620000e+00    7.090511e-01    1.399087e+00
    9.799864e-01    9.635420e+01    5.593955e+00    4.450134e+07    1.960587e-08    4.904323e-11    1.898716e-08    3.439951e-09   -2.610000e+00    7.090511e-01    1.391197e+00
    9.856154e-01    1.004478e+02    5.539250e+00    4.432035e+07    1.960538e-08    4.769660e-11    1.897480e-08    3.439102e-09   -2.600000e+00    7.090511e-01    1.383317e+00
    9.912859e-01    1.046156e+02    5.484765e+00    4.413797e+07    1.960491e-08    4.639154e-11    1.896238e-08    3.438254e-09   -2.590000e+00    7.090511e-01    1.375445e+00
    9.969975e-01    1.088544e+02    5.430510e+00    4.395422e+07    1.960443e-08    4.512662e-11    1.894993e-08    3.437406e-09   -2.580000e+00    7.090511e-01    1.367583e+00
    1.002753e+00    1.131615e+02    5.376485e+00    4.376921e+07    1.960396e-08    4.390043e-11    1.893742e-08    3.436560e-09   -2.570000e+00    7.090511e-01    1.359730e+00
    1.008556e+00    1.175342e+02    5.322685e+00    4.358305e+07    1.960348e-08    4.271164e-11    1.892486e-08    3.435714e-09   -2.560000e+00    7.090511e-01    1.351886e+00
    1.014406e+00    1.219695e+02    5.269120e+00    4.339575e+07    1.960301e-08    4.155897e-11    1.891225e-08    3.434869e-09   -2.550000e+00    7.090511e-01    1.344051e+00
    1.020307e+00    1.264651e+02    5.215785e+00    4.320744e+07    1.960253e-08    4.044118e-11    1.889960e-08    3.434023e-09   -2.540000e+00    7.090511e-01    1.336226e+00
    1.026259e+00    1.310182e+02    5.162685e+00    4.301810e+07    1.960205e-08    3.935708e-11    1.888690e-08    3.433180e-09   -2.530000e+00    7.090511e-01    1.328409e+00
    1.032264e+00    1.356267e+02    5.109820e+00    4.282781e+07    1.960156e-08    3.830553e-11    1.887415e-08    3.432335e-09   -2.520000e+00    7.090511e-01    1.320601e+00
    1.038326e+00    1.402883e+02    5.057190e+00    4.263664e+07    1.960108e-08    3.728540e-11    1.886135e-08    3.431491e-09   -2.510000e+00    7.090511e-01    1.312802e+00
    1.044443e+00    1.450010e+02    5.004800e+00    4.244463e+07    1.960058e-08    3.629566e-11    1.884850e-08    3.430647e-09   -2.500000e+00    7.090511e-01    1.305012e+00
    1.050619e+00    1.497628e+02    4.952648e+00    4.225175e+07    1.960009e-08    3.533527e-11    1.883560e-08    3.429803e-09   -2.490000e+00    7.090511e-01    1.297231e+00
    1.056856e+00    1.545721e+02    4.900734e+00    4.205815e+07    1.959959e-08    3.440325e-11    1.882266e-08    3.428959e-09   -2.480000e+00    7.090511e-01    1.289459e+00
    1.063154e+00    1.594271e+02    4.849061e+00    4.186380e+07    1.959907e-08    3.349865e-11    1.880967e-08    3.428114e-09   -2.470000e+00    7.090511e-01    1.281696e+00
    1.069517e+00    1.643266e+02    4.797629e+00    4.166875e+07    1.959855e-08    3.262055e-11    1.879663e-08    3.427268e-09   -2.460000e+00    7.090511e-01    1.273942e+00
    1.075945e+00    1.692691e+02    4.746438e+00    4.147303e+07    1.959802e-08    3.176809e-11    1.878354e-08    3.426422e-09   -2.450000e+00    7.090511e-01    1.266197e+00
    1.082439e+00    1.742533e+02    4.695491e+00    4.127662e+07    1.959748e-08    3.094040e-11    1.877040e-08    3.425575e-09   -2.440000e+00    7.090511e-01    1.258460e+00
    1.089001e+00    1.792784e+02    4.644787e+00    4.107963e+07    1.959693e-08    3.013668e-11    1.875721e-08    3.424727e-09   -2.430000e+00    7.090511e-01    1.250733e+00
    1.095634e+00    1.843433e+02    4.594327e+00    4.088199e+07    1.959636e-08    2.935613e-11    1.874397e-08    3.423878e-09   -2.420000e+00    7.090511e-01    1.243014e+00
    1.102338e+00    1.894475e+02    4.544113e+00    4.068380e+07    1.959579e-08    2.859801e-11    1.873068e-08    3.423027e-09   -2.410000e+00    7.090511e-01    1.235304e+00
    1.109116e+00    1.945900e+02    4.494144e+00    4.048504e+07    1.959519e-08    2.786157e-11    1.871735e-08    3.422176e-09   -2.400000e+00    7.090511e-01    1.227603e+00
    1.115968e+00    1.997706e+02    4.444423e+00    4.028573e+07    1.959459e-08    2.714612e-11    1.870396e-08    3.421323e-09   -2.390000e+00    7.090511e-01    1.219910e+00
    1.122897e+00    2.049886e+02    4.394948e+00    4.008589e+07    1.959397e-08    2.645097e-11    1.869053e-08    3.420468e-09   -2.380000e+00    7.090511e-01    1.212227e+00
    1.129904e+00    2.102440e+02    4.345722e+00    3.988554e+07    1.959333e-08    2.577548e-11    1.867704e-08    3.419612e-09   -2.370000e+00    7.090511e-01    1.204552e+00
    1.136992e+00    2.155365e+02    4.296743e+00    3.968470e+07    1.959268e-08    2.511901e-11    1.866350e-08    3.418754e-09   -2.360000e+00    7.090511e-01    1.196886e+00
    1.144160e+00    2.208659e+02    4.248015e+00    3.948337e+07    1.959200e-08    2.448096e-11    1.864991e-08    3.417893e-09   -2.350000e+00    7.090511e-01    1.189229e+00
    1.151413e+00    2.262324e+02    4.199535e+00    3.928157e+07    1.959131e-08    2.386073e-11    1.863626e-08    3.417031e-09   -2.340000e+00    7.090511e-01    1.181580e+00
    1.158750e+00    2.316360e+02    4.151307e+00    3.907930e+07    1.959060e-08    2.325776e-11    1.862257e-08    3.416166e-09   -2.330000e+00    7.090511e-01    1.173940e+00
    1.166174e+00    2.370769e+02    4.103329e+00    3.887658e+07    1.958987e-08    2.267151e-11    1.860882e-08    3.415298e-09   -2.320000e+00    7.090511e-01    1.166308e+00
    1.173687e+00    2.425553e+02    4.055603e+00    3.867343e+07    1.958913e-08    2.210146e-11    1.859501e-08    3.414429e-09   -2.310000e+00    7.090511e-01    1.158686e+00
    1.181290e+00    2.480717e+02    4.008129e+00    3.846983e+07    1.958836e-08    2.154708e-11    1.858115e-08    3.413556e-09   -2.300000e+00    7.090511e-01    1.151072e+00
    1.188985e+00    2.536265e+02    3.960908e+00    3.826582e+07    1.958756e-08    2.100790e-11    1.856725e-08    3.412681e-09   -2.290000e+00    7.090511e-01    1.143466e+00
    1.196775e+00    2.592201e+02    3.913940e+00    3.806138e+07    1.958675e-08    2.048343e-11    1.855328e-08    3.411802e-09   -2.280000e+00    7.090511e-01    1.135869e+00
    1.204661e+00    2.648532e+02    3.867226e+00    3.785654e+07    1.958591e-08    1.997323e-11    1.853925e-08    3.410921e-09   -2.270000e+00    7.090511e-01    1.128281e+00
    1.212645e+00    2.705264e+02    3.820766e+00    3.765129e+07    1.958504e-08    1.947685e-11    1.852518e-08    3.410036e-09   -2.260000e+00    7.090511e-01    1.120701e+00
    1.220729e+00    2.762403e+02    3.774561e+00    3.744564e+07    1.958415e-08    1.899386e-11    1.851105e-08    3.409148e-09   -2.250000e+00    7.090511e-01    1.113130e+00
    1.228916e+00    2.819957e+02    3.728612e+00    3.723961e+07    1.958324e-08    1.852387e-11    1.849686e-08    3.408257e-09   -2.240000e+00    7.090511e-01    1.105567e+00
    1.237207e+00    2.877935e+02    3.682919e+00    3.703318e+07    1.958230e-08    1.806646e-11    1.848261e-08    3.407361e-09   -2.230000e+00    7.090511e-01    1.098013e+00
    1.245604e+00    2.936345e+02    3.637482e+00    3.682637e+07    1.958133e-08    1.762126e-11    1.846830e-08    3.406462e-09   -2.220000e+00    7.090511e-01    1.090468e+00
