# GF180MCU-D pfet_03v3 gm/ID Processed Lookup Table
# Corner: typical
# Temperature: 85C
# W = 2.0 um
# L = 5.5 um (5500 nm)
# Columns: gm/id [1/V]  gm/gds [V/V]  id/W [A/m]  ft [Hz]  Cgg/W [F/m]  Cgd/W [F/m]  Cgs/W [F/m]  Cdb/W [F/m]  vgs [V]  vth [V]  vdsat [V]
# vdsat = BSIM saturation voltage (|VDS|_sat, positive); use for headroom / saturation / cascode-bias calculations
#           gm/id          gm/gds            id/W              ft           Cgg/W           Cgd/W           Cgs/W           Cdb/W             vgs             vth           vdsat
    5.986925e-01    3.521380e+00    1.052851e+01    5.533156e+07    1.813084e-08    3.959061e-10    1.801602e-08    3.210520e-09   -3.300000e+00    7.093435e-01    1.960881e+00
    6.034399e-01    3.615589e+00    1.046547e+01    5.545558e+07    1.812457e-08    3.825619e-10    1.801188e-08    3.209648e-09   -3.290000e+00    7.093435e-01    1.952318e+00
    6.082494e-01    3.714405e+00    1.040221e+01    5.557813e+07    1.811854e-08    3.696672e-10    1.800750e-08    3.208768e-09   -3.280000e+00    7.093435e-01    1.943764e+00
    6.131107e-01    3.818144e+00    1.033887e+01    5.569911e+07    1.811274e-08    3.572093e-10    1.800287e-08    3.207881e-09   -3.270000e+00    7.093435e-01    1.935221e+00
    6.180285e-01    3.927153e+00    1.027543e+01    5.581853e+07    1.810715e-08    3.451759e-10    1.799802e-08    3.206987e-09   -3.260000e+00    7.093435e-01    1.926689e+00
    6.230013e-01    4.041802e+00    1.021187e+01    5.593622e+07    1.810177e-08    3.335543e-10    1.799295e-08    3.206086e-09   -3.250000e+00    7.093435e-01    1.918166e+00
    6.280305e-01    4.162498e+00    1.014818e+01    5.605215e+07    1.809660e-08    3.223324e-10    1.798764e-08    3.205181e-09   -3.240000e+00    7.093435e-01    1.909654e+00
    6.331148e-01    4.289680e+00    1.008439e+01    5.616616e+07    1.809163e-08    3.114978e-10    1.798214e-08    3.204270e-09   -3.230000e+00    7.093435e-01    1.901153e+00
    6.382549e-01    4.423831e+00    1.002050e+01    5.627823e+07    1.808686e-08    3.010390e-10    1.797643e-08    3.203357e-09   -3.220000e+00    7.093435e-01    1.892662e+00
    6.434495e-01    4.565466e+00    9.956485e+00    5.638814e+07    1.808227e-08    2.909438e-10    1.797052e-08    3.202439e-09   -3.210000e+00    7.093435e-01    1.884181e+00
    6.486988e-01    4.715156e+00    9.892365e+00    5.649584e+07    1.807786e-08    2.812009e-10    1.796442e-08    3.201519e-09   -3.200000e+00    7.093435e-01    1.875710e+00
    6.540017e-01    4.873518e+00    9.828140e+00    5.660112e+07    1.807362e-08    2.717989e-10    1.795813e-08    3.200597e-09   -3.190000e+00    7.093435e-01    1.867249e+00
    6.593575e-01    5.041226e+00    9.763815e+00    5.670390e+07    1.806957e-08    2.627266e-10    1.795166e-08    3.199672e-09   -3.180000e+00    7.093435e-01    1.858799e+00
    6.647653e-01    5.219010e+00    9.699385e+00    5.680396e+07    1.806567e-08    2.539733e-10    1.794503e-08    3.198747e-09   -3.170000e+00    7.093435e-01    1.850359e+00
    6.702235e-01    5.407670e+00    9.634860e+00    5.690115e+07    1.806193e-08    2.455281e-10    1.793822e-08    3.197821e-09   -3.160000e+00    7.093435e-01    1.841929e+00
    6.757316e-01    5.608078e+00    9.570235e+00    5.699529e+07    1.805834e-08    2.373809e-10    1.793125e-08    3.196895e-09   -3.150000e+00    7.093435e-01    1.833510e+00
    6.812868e-01    5.821176e+00    9.505520e+00    5.708613e+07    1.805491e-08    2.295213e-10    1.792413e-08    3.195969e-09   -3.140000e+00    7.093435e-01    1.825100e+00
    6.868872e-01    6.047999e+00    9.440720e+00    5.717348e+07    1.805161e-08    2.219397e-10    1.791686e-08    3.195043e-09   -3.130000e+00    7.093435e-01    1.816701e+00
    6.925312e-01    6.289666e+00    9.375830e+00    5.725706e+07    1.804846e-08    2.146263e-10    1.790944e-08    3.194119e-09   -3.120000e+00    7.093435e-01    1.808311e+00
    6.982169e-01    6.547405e+00    9.310860e+00    5.733673e+07    1.804544e-08    2.075719e-10    1.790188e-08    3.193195e-09   -3.110000e+00    7.093435e-01    1.799932e+00
    7.039405e-01    6.822534e+00    9.245810e+00    5.741209e+07    1.804254e-08    2.007672e-10    1.789418e-08    3.192274e-09   -3.100000e+00    7.093435e-01    1.791563e+00
    7.096999e-01    7.116502e+00    9.180690e+00    5.748299e+07    1.803976e-08    1.942036e-10    1.788635e-08    3.191354e-09   -3.090000e+00    7.093435e-01    1.783204e+00
    7.154923e-01    7.430873e+00    9.115500e+00    5.754911e+07    1.803711e-08    1.878725e-10    1.787839e-08    3.190435e-09   -3.080000e+00    7.093435e-01    1.774855e+00
    7.213132e-01    7.767326e+00    9.050250e+00    5.761012e+07    1.803457e-08    1.817655e-10    1.787032e-08    3.189520e-09   -3.070000e+00    7.093435e-01    1.766516e+00
    7.271596e-01    8.127691e+00    8.984940e+00    5.766573e+07    1.803214e-08    1.758746e-10    1.786212e-08    3.188608e-09   -3.060000e+00    7.093435e-01    1.758187e+00
    7.330268e-01    8.513937e+00    8.919585e+00    5.771564e+07    1.802981e-08    1.701920e-10    1.785381e-08    3.187698e-09   -3.050000e+00    7.093435e-01    1.749868e+00
    7.389126e-01    8.928189e+00    8.854180e+00    5.775957e+07    1.802759e-08    1.647102e-10    1.784538e-08    3.186790e-09   -3.040000e+00    7.093435e-01    1.741558e+00
    7.448114e-01    9.372707e+00    8.788735e+00    5.779715e+07    1.802546e-08    1.594219e-10    1.783685e-08    3.185886e-09   -3.030000e+00    7.093435e-01    1.733259e+00
    7.507193e-01    9.849928e+00    8.723260e+00    5.782816e+07    1.802342e-08    1.543201e-10    1.782821e-08    3.184986e-09   -3.020000e+00    7.093435e-01    1.724970e+00
    7.566318e-01    1.036244e+01    8.657765e+00    5.785224e+07    1.802148e-08    1.493979e-10    1.781948e-08    3.184088e-09   -3.010000e+00    7.093435e-01    1.716690e+00
    7.625442e-01    1.091297e+01    8.592250e+00    5.786907e+07    1.801961e-08    1.446486e-10    1.781064e-08    3.183195e-09   -3.000000e+00    7.093435e-01    1.708421e+00
    7.684527e-01    1.150446e+01    8.526725e+00    5.787846e+07    1.801783e-08    1.400662e-10    1.780171e-08    3.182304e-09   -2.990000e+00    7.093435e-01    1.700161e+00
    7.743525e-01    1.213994e+01    8.461205e+00    5.788012e+07    1.801614e-08    1.356442e-10    1.779269e-08    3.181417e-09   -2.980000e+00    7.093435e-01    1.691911e+00
    7.802402e-01    1.282261e+01    8.395690e+00    5.787384e+07    1.801452e-08    1.313769e-10    1.778358e-08    3.180535e-09   -2.970000e+00    7.093435e-01    1.683671e+00
    7.861106e-01    1.355582e+01    8.330195e+00    5.785940e+07    1.801296e-08    1.272585e-10    1.777438e-08    3.179656e-09   -2.960000e+00    7.093435e-01    1.675441e+00
    7.919616e-01    1.434300e+01    8.264725e+00    5.783669e+07    1.801148e-08    1.232834e-10    1.776510e-08    3.178780e-09   -2.950000e+00    7.093435e-01    1.667220e+00
    7.977886e-01    1.518770e+01    8.199290e+00    5.780548e+07    1.801006e-08    1.194465e-10    1.775574e-08    3.177909e-09   -2.940000e+00    7.093435e-01    1.659009e+00
    8.035893e-01    1.609355e+01    8.133900e+00    5.776578e+07    1.800871e-08    1.157426e-10    1.774630e-08    3.177041e-09   -2.930000e+00    7.093435e-01    1.650808e+00
    8.093609e-01    1.706422e+01    8.068570e+00    5.771752e+07    1.800741e-08    1.121668e-10    1.773678e-08    3.176178e-09   -2.920000e+00    7.093435e-01    1.642617e+00
    8.151013e-01    1.810339e+01    8.003300e+00    5.766062e+07    1.800618e-08    1.087142e-10    1.772718e-08    3.175318e-09   -2.910000e+00    7.093435e-01    1.634435e+00
    8.208104e-01    1.921476e+01    7.938100e+00    5.759525e+07    1.800499e-08    1.053804e-10    1.771752e-08    3.174461e-09   -2.900000e+00    7.093435e-01    1.626263e+00
    8.264851e-01    2.040192e+01    7.872985e+00    5.752134e+07    1.800386e-08    1.021610e-10    1.770778e-08    3.173609e-09   -2.890000e+00    7.093435e-01    1.618101e+00
    8.321266e-01    2.166847e+01    7.807965e+00    5.743912e+07    1.800278e-08    9.905160e-11    1.769798e-08    3.172760e-09   -2.880000e+00    7.093435e-01    1.609948e+00
    8.377337e-01    2.301777e+01    7.743045e+00    5.734867e+07    1.800175e-08    9.604830e-11    1.768810e-08    3.171916e-09   -2.870000e+00    7.093435e-01    1.601805e+00
    8.433084e-01    2.445313e+01    7.678235e+00    5.725021e+07    1.800076e-08    9.314710e-11    1.767817e-08    3.171074e-09   -2.860000e+00    7.093435e-01    1.593672e+00
    8.488503e-01    2.597756e+01    7.613545e+00    5.714393e+07    1.799982e-08    9.034425e-11    1.766816e-08    3.170237e-09   -2.850000e+00    7.093435e-01    1.585548e+00
    8.543612e-01    2.759388e+01    7.548985e+00    5.703008e+07    1.799891e-08    8.763610e-11    1.765809e-08    3.169403e-09   -2.840000e+00    7.093435e-01    1.577433e+00
    8.598435e-01    2.930466e+01    7.484560e+00    5.690895e+07    1.799804e-08    8.501915e-11    1.764797e-08    3.168572e-09   -2.830000e+00    7.093435e-01    1.569329e+00
    8.652995e-01    3.111212e+01    7.420275e+00    5.678078e+07    1.799721e-08    8.249010e-11    1.763778e-08    3.167745e-09   -2.820000e+00    7.093435e-01    1.561233e+00
    8.707312e-01    3.301820e+01    7.356145e+00    5.664591e+07    1.799642e-08    8.004560e-11    1.762754e-08    3.166922e-09   -2.810000e+00    7.093435e-01    1.553148e+00
    8.761412e-01    3.502441e+01    7.292175e+00    5.650460e+07    1.799565e-08    7.768265e-11    1.761724e-08    3.166101e-09   -2.800000e+00    7.093435e-01    1.545071e+00
    8.815328e-01    3.713197e+01    7.228370e+00    5.635715e+07    1.799492e-08    7.539825e-11    1.760688e-08    3.165284e-09   -2.790000e+00    7.093435e-01    1.537005e+00
    8.869093e-01    3.934169e+01    7.164735e+00    5.620391e+07    1.799422e-08    7.318950e-11    1.759646e-08    3.164470e-09   -2.780000e+00    7.093435e-01    1.528947e+00
    8.922736e-01    4.165401e+01    7.101280e+00    5.604517e+07    1.799354e-08    7.105360e-11    1.758599e-08    3.163658e-09   -2.770000e+00    7.093435e-01    1.520899e+00
    8.976294e-01    4.406896e+01    7.038010e+00    5.588126e+07    1.799289e-08    6.898795e-11    1.757547e-08    3.162850e-09   -2.760000e+00    7.093435e-01    1.512861e+00
    9.029797e-01    4.658621e+01    6.974930e+00    5.571245e+07    1.799226e-08    6.699000e-11    1.756489e-08    3.162045e-09   -2.750000e+00    7.093435e-01    1.504832e+00
    9.083275e-01    4.920505e+01    6.912050e+00    5.553904e+07    1.799165e-08    6.505725e-11    1.755427e-08    3.161242e-09   -2.740000e+00    7.093435e-01    1.496812e+00
    9.136774e-01    5.192446e+01    6.849365e+00    5.536131e+07    1.799107e-08    6.318740e-11    1.754359e-08    3.160441e-09   -2.730000e+00    7.093435e-01    1.488802e+00
    9.190314e-01    5.474304e+01    6.786890e+00    5.517951e+07    1.799051e-08    6.137810e-11    1.753287e-08    3.159644e-09   -2.720000e+00    7.093435e-01    1.480801e+00
    9.243935e-01    5.765912e+01    6.724620e+00    5.499391e+07    1.798996e-08    5.962720e-11    1.752209e-08    3.158849e-09   -2.710000e+00    7.093435e-01    1.472809e+00
    9.297665e-01    6.067073e+01    6.662565e+00    5.480474e+07    1.798943e-08    5.793265e-11    1.751126e-08    3.158056e-09   -2.700000e+00    7.093435e-01    1.464826e+00
    9.351534e-01    6.377571e+01    6.600730e+00    5.461224e+07    1.798892e-08    5.629240e-11    1.750039e-08    3.157265e-09   -2.690000e+00    7.093435e-01    1.456853e+00
    9.405584e-01    6.697165e+01    6.539110e+00    5.441663e+07    1.798841e-08    5.470445e-11    1.748947e-08    3.156476e-09   -2.680000e+00    7.093435e-01    1.448889e+00
    9.459825e-01    7.025593e+01    6.477720e+00    5.421811e+07    1.798793e-08    5.316705e-11    1.747850e-08    3.155690e-09   -2.670000e+00    7.093435e-01    1.440935e+00
    9.514303e-01    7.362590e+01    6.416555e+00    5.401689e+07    1.798745e-08    5.167830e-11    1.746748e-08    3.154905e-09   -2.660000e+00    7.093435e-01    1.432989e+00
    9.569027e-01    7.707862e+01    6.355625e+00    5.381309e+07    1.798698e-08    5.023650e-11    1.745642e-08    3.154122e-09   -2.650000e+00    7.093435e-01    1.425053e+00
    9.624030e-01    8.061116e+01    6.294925e+00    5.360688e+07    1.798652e-08    4.884004e-11    1.744531e-08    3.153340e-09   -2.640000e+00    7.093435e-01    1.417126e+00
    9.679347e-01    8.422061e+01    6.234460e+00    5.339846e+07    1.798607e-08    4.748728e-11    1.743416e-08    3.152560e-09   -2.630000e+00    7.093435e-01    1.409208e+00
    9.734996e-01    8.790398e+01    6.174235e+00    5.318798e+07    1.798562e-08    4.617670e-11    1.742296e-08    3.151782e-09   -2.620000e+00    7.093435e-01    1.401300e+00
    9.790996e-01    9.165830e+01    6.114250e+00    5.297553e+07    1.798519e-08    4.490682e-11    1.741171e-08    3.151004e-09   -2.610000e+00    7.093435e-01    1.393400e+00
    9.847370e-01    9.548037e+01    6.054505e+00    5.276118e+07    1.798475e-08    4.367622e-11    1.740042e-08    3.150228e-09   -2.600000e+00    7.093435e-01    1.385510e+00
    9.904154e-01    9.936765e+01    5.995005e+00    5.254520e+07    1.798432e-08    4.248354e-11    1.738909e-08    3.149453e-09   -2.590000e+00    7.093435e-01    1.377629e+00
    9.961344e-01    1.033172e+02    5.935755e+00    5.232754e+07    1.798390e-08    4.132745e-11    1.737771e-08    3.148679e-09   -2.580000e+00    7.093435e-01    1.369757e+00
    1.001897e+00    1.073259e+02    5.876750e+00    5.210832e+07    1.798347e-08    4.020670e-11    1.736628e-08    3.147905e-09   -2.570000e+00    7.093435e-01    1.361893e+00
    1.007707e+00    1.113916e+02    5.817995e+00    5.188773e+07    1.798304e-08    3.912007e-11    1.735482e-08    3.147133e-09   -2.560000e+00    7.093435e-01    1.354039e+00
    1.013564e+00    1.155116e+02    5.759495e+00    5.166575e+07    1.798261e-08    3.806638e-11    1.734330e-08    3.146360e-09   -2.550000e+00    7.093435e-01    1.346194e+00
    1.019470e+00    1.196834e+02    5.701245e+00    5.144247e+07    1.798219e-08    3.704452e-11    1.733175e-08    3.145588e-09   -2.540000e+00    7.093435e-01    1.338358e+00
    1.025429e+00    1.239049e+02    5.643250e+00    5.121800e+07    1.798176e-08    3.605340e-11    1.732015e-08    3.144817e-09   -2.530000e+00    7.093435e-01    1.330531e+00
    1.031440e+00    1.281739e+02    5.585510e+00    5.099239e+07    1.798133e-08    3.509197e-11    1.730851e-08    3.144045e-09   -2.520000e+00    7.093435e-01    1.322713e+00
    1.037506e+00    1.324883e+02    5.528030e+00    5.076566e+07    1.798089e-08    3.415922e-11    1.729682e-08    3.143274e-09   -2.510000e+00    7.093435e-01    1.314904e+00
    1.043630e+00    1.368465e+02    5.470805e+00    5.053792e+07    1.798045e-08    3.325419e-11    1.728509e-08    3.142503e-09   -2.500000e+00    7.093435e-01    1.307104e+00
    1.049811e+00    1.412466e+02    5.413840e+00    5.030916e+07    1.798000e-08    3.237596e-11    1.727332e-08    3.141732e-09   -2.490000e+00    7.093435e-01    1.299313e+00
    1.056053e+00    1.456872e+02    5.357135e+00    5.007949e+07    1.797955e-08    3.152362e-11    1.726150e-08    3.140960e-09   -2.480000e+00    7.093435e-01    1.291531e+00
    1.062358e+00    1.501669e+02    5.300690e+00    4.984893e+07    1.797909e-08    3.069630e-11    1.724963e-08    3.140188e-09   -2.470000e+00    7.093435e-01    1.283757e+00
    1.068724e+00    1.546843e+02    5.244510e+00    4.961745e+07    1.797862e-08    2.989317e-11    1.723772e-08    3.139416e-09   -2.460000e+00    7.093435e-01    1.275993e+00
    1.075156e+00    1.592385e+02    5.188595e+00    4.938520e+07    1.797814e-08    2.911345e-11    1.722577e-08    3.138642e-09   -2.450000e+00    7.093435e-01    1.268237e+00
    1.081655e+00    1.638284e+02    5.132940e+00    4.915211e+07    1.797765e-08    2.835634e-11    1.721377e-08    3.137868e-09   -2.440000e+00    7.093435e-01    1.260491e+00
    1.088223e+00    1.684531e+02    5.077550e+00    4.891829e+07    1.797715e-08    2.762113e-11    1.720173e-08    3.137093e-09   -2.430000e+00    7.093435e-01    1.252753e+00
    1.094859e+00    1.731121e+02    5.022430e+00    4.868372e+07    1.797665e-08    2.690706e-11    1.718964e-08    3.136317e-09   -2.420000e+00    7.093435e-01    1.245024e+00
    1.101568e+00    1.778046e+02    4.967575e+00    4.844843e+07    1.797613e-08    2.621347e-11    1.717751e-08    3.135540e-09   -2.410000e+00    7.093435e-01    1.237303e+00
    1.108350e+00    1.825303e+02    4.912988e+00    4.821249e+07    1.797559e-08    2.553969e-11    1.716532e-08    3.134762e-09   -2.400000e+00    7.093435e-01    1.229592e+00
    1.115207e+00    1.872887e+02    4.858669e+00    4.797586e+07    1.797504e-08    2.488506e-11    1.715310e-08    3.133983e-09   -2.390000e+00    7.093435e-01    1.221889e+00
    1.122140e+00    1.920796e+02    4.804619e+00    4.773861e+07    1.797448e-08    2.424899e-11    1.714083e-08    3.133201e-09   -2.380000e+00    7.093435e-01    1.214195e+00
    1.129151e+00    1.969028e+02    4.750840e+00    4.750071e+07    1.797390e-08    2.363086e-11    1.712852e-08    3.132419e-09   -2.370000e+00    7.093435e-01    1.206510e+00
    1.136242e+00    2.017583e+02    4.697331e+00    4.726220e+07    1.797332e-08    2.303011e-11    1.711615e-08    3.131634e-09   -2.360000e+00    7.093435e-01    1.198833e+00
    1.143415e+00    2.066461e+02    4.644094e+00    4.702311e+07    1.797271e-08    2.244618e-11    1.710374e-08    3.130848e-09   -2.350000e+00    7.093435e-01    1.191165e+00
    1.150670e+00    2.115664e+02    4.591129e+00    4.678342e+07    1.797209e-08    2.187854e-11    1.709128e-08    3.130060e-09   -2.340000e+00    7.093435e-01    1.183506e+00
    1.158011e+00    2.165193e+02    4.538437e+00    4.654319e+07    1.797145e-08    2.132666e-11    1.707877e-08    3.129269e-09   -2.330000e+00    7.093435e-01    1.175855e+00
    1.165439e+00    2.215053e+02    4.486018e+00    4.630241e+07    1.797079e-08    2.079006e-11    1.706622e-08    3.128477e-09   -2.320000e+00    7.093435e-01    1.168213e+00
    1.172955e+00    2.265244e+02    4.433873e+00    4.606108e+07    1.797011e-08    2.026824e-11    1.705361e-08    3.127682e-09   -2.310000e+00    7.093435e-01    1.160580e+00
    1.180563e+00    2.315775e+02    4.382004e+00    4.581926e+07    1.796941e-08    1.976076e-11    1.704096e-08    3.126884e-09   -2.300000e+00    7.093435e-01    1.152955e+00
    1.188262e+00    2.366647e+02    4.330409e+00    4.557690e+07    1.796869e-08    1.926716e-11    1.702825e-08    3.126084e-09   -2.290000e+00    7.093435e-01    1.145339e+00
    1.196056e+00    2.417867e+02    4.279091e+00    4.533403e+07    1.796796e-08    1.878702e-11    1.701549e-08    3.125281e-09   -2.280000e+00    7.093435e-01    1.137732e+00
    1.203944e+00    2.469439e+02    4.228049e+00    4.509062e+07    1.796720e-08    1.831990e-11    1.700269e-08    3.124476e-09   -2.270000e+00    7.093435e-01    1.130133e+00
    1.211932e+00    2.521374e+02    4.177284e+00    4.484677e+07    1.796641e-08    1.786542e-11    1.698984e-08    3.123667e-09   -2.260000e+00    7.093435e-01    1.122542e+00
    1.220020e+00    2.573676e+02    4.126797e+00    4.460241e+07    1.796561e-08    1.742318e-11    1.697692e-08    3.122856e-09   -2.250000e+00    7.093435e-01    1.114960e+00
    1.228211e+00    2.626356e+02    4.076589e+00    4.435761e+07    1.796478e-08    1.699282e-11    1.696397e-08    3.122041e-09   -2.240000e+00    7.093435e-01    1.107387e+00
    1.236505e+00    2.679418e+02    4.026659e+00    4.411230e+07    1.796392e-08    1.657395e-11    1.695095e-08    3.121223e-09   -2.230000e+00    7.093435e-01    1.099822e+00
    1.244906e+00    2.732873e+02    3.977009e+00    4.386654e+07    1.796304e-08    1.616626e-11    1.693789e-08    3.120401e-09   -2.220000e+00    7.093435e-01    1.092266e+00
