# GF180MCU-D pfet_03v3 gm/ID Processed Lookup Table
# Corner: typical
# Temperature: 85C
# W = 2.0 um
# L = 3 um (3000 nm)
# Columns: gm/id [1/V]  gm/gds [V/V]  id/W [A/m]  ft [Hz]  Cgg/W [F/m]  Cgd/W [F/m]  Cgs/W [F/m]  Cdb/W [F/m]  vgs [V]  vth [V]  vdsat [V]
# vdsat = BSIM saturation voltage (|VDS|_sat, positive); use for headroom / saturation / cascode-bias calculations
#           gm/id          gm/gds            id/W              ft           Cgg/W           Cgd/W           Cgs/W           Cdb/W             vgs             vth           vdsat
    5.850290e-01    3.204822e+00    1.946694e+01    1.822938e+08    9.943135e-09    2.152914e-10    9.831880e-09    1.737908e-09   -3.300000e+00    7.122387e-01    1.986771e+00
    5.896503e-01    3.284016e+00    1.935306e+01    1.827194e+08    9.939845e-09    2.081220e-10    9.829815e-09    1.737456e-09   -3.290000e+00    7.122387e-01    1.978140e+00
    5.943340e-01    3.366800e+00    1.923871e+01    1.831409e+08    9.936680e-09    2.011914e-10    9.827610e-09    1.736998e-09   -3.280000e+00    7.122387e-01    1.969519e+00
    5.990704e-01    3.453408e+00    1.912426e+01    1.835585e+08    9.933630e-09    1.944930e-10    9.825280e-09    1.736535e-09   -3.270000e+00    7.122387e-01    1.960908e+00
    6.038628e-01    3.544086e+00    1.900958e+01    1.839718e+08    9.930695e-09    1.880201e-10    9.822825e-09    1.736068e-09   -3.260000e+00    7.122387e-01    1.952307e+00
    6.087119e-01    3.639105e+00    1.889467e+01    1.843805e+08    9.927875e-09    1.817663e-10    9.820250e-09    1.735599e-09   -3.250000e+00    7.122387e-01    1.943716e+00
    6.136175e-01    3.738755e+00    1.877955e+01    1.847845e+08    9.925160e-09    1.757249e-10    9.817555e-09    1.735126e-09   -3.240000e+00    7.122387e-01    1.935136e+00
    6.185803e-01    3.843354e+00    1.866421e+01    1.851836e+08    9.922550e-09    1.698898e-10    9.814750e-09    1.734650e-09   -3.230000e+00    7.122387e-01    1.926565e+00
    6.236004e-01    3.953241e+00    1.854864e+01    1.855774e+08    9.920045e-09    1.642545e-10    9.811830e-09    1.734171e-09   -3.220000e+00    7.122387e-01    1.918005e+00
    6.286774e-01    4.068786e+00    1.843286e+01    1.859656e+08    9.917635e-09    1.588129e-10    9.808805e-09    1.733691e-09   -3.210000e+00    7.122387e-01    1.909455e+00
    6.338114e-01    4.190390e+00    1.831687e+01    1.863481e+08    9.915320e-09    1.535589e-10    9.805675e-09    1.733208e-09   -3.200000e+00    7.122387e-01    1.900914e+00
    6.390022e-01    4.318487e+00    1.820068e+01    1.867242e+08    9.913100e-09    1.484865e-10    9.802450e-09    1.732725e-09   -3.190000e+00    7.122387e-01    1.892384e+00
    6.442494e-01    4.453545e+00    1.808427e+01    1.870936e+08    9.910970e-09    1.435900e-10    9.799125e-09    1.732239e-09   -3.180000e+00    7.122387e-01    1.883863e+00
    6.495524e-01    4.596077e+00    1.796767e+01    1.874560e+08    9.908925e-09    1.388634e-10    9.795710e-09    1.731753e-09   -3.170000e+00    7.122387e-01    1.875353e+00
    6.549109e-01    4.746636e+00    1.785085e+01    1.878109e+08    9.906965e-09    1.343013e-10    9.792200e-09    1.731267e-09   -3.160000e+00    7.122387e-01    1.866852e+00
    6.603239e-01    4.905821e+00    1.773385e+01    1.881577e+08    9.905085e-09    1.298981e-10    9.788605e-09    1.730780e-09   -3.150000e+00    7.122387e-01    1.858362e+00
    6.657901e-01    5.074283e+00    1.761666e+01    1.884959e+08    9.903280e-09    1.256487e-10    9.784925e-09    1.730292e-09   -3.140000e+00    7.122387e-01    1.849881e+00
    6.713091e-01    5.252732e+00    1.749927e+01    1.888249e+08    9.901555e-09    1.215476e-10    9.781160e-09    1.729805e-09   -3.130000e+00    7.122387e-01    1.841410e+00
    6.768785e-01    5.441926e+00    1.738171e+01    1.891440e+08    9.899900e-09    1.175899e-10    9.777320e-09    1.729318e-09   -3.120000e+00    7.122387e-01    1.832949e+00
    6.824971e-01    5.642695e+00    1.726397e+01    1.894525e+08    9.898315e-09    1.137706e-10    9.773405e-09    1.728831e-09   -3.110000e+00    7.122387e-01    1.824497e+00
    6.881633e-01    5.855938e+00    1.714606e+01    1.897498e+08    9.896800e-09    1.100849e-10    9.769415e-09    1.728345e-09   -3.100000e+00    7.122387e-01    1.816056e+00
    6.938751e-01    6.082625e+00    1.702799e+01    1.900351e+08    9.895345e-09    1.065283e-10    9.765350e-09    1.727859e-09   -3.090000e+00    7.122387e-01    1.807624e+00
    6.996296e-01    6.323798e+00    1.690976e+01    1.903074e+08    9.893955e-09    1.030960e-10    9.761220e-09    1.727375e-09   -3.080000e+00    7.122387e-01    1.799202e+00
    7.054247e-01    6.580591e+00    1.679138e+01    1.905660e+08    9.892625e-09    9.978380e-11    9.757020e-09    1.726891e-09   -3.070000e+00    7.122387e-01    1.790790e+00
    7.112570e-01    6.854212e+00    1.667286e+01    1.908099e+08    9.891355e-09    9.658745e-11    9.752760e-09    1.726408e-09   -3.060000e+00    7.122387e-01    1.782387e+00
    7.171235e-01    7.145967e+00    1.655420e+01    1.910381e+08    9.890140e-09    9.350280e-11    9.748435e-09    1.725927e-09   -3.050000e+00    7.122387e-01    1.773995e+00
    7.230215e-01    7.457258e+00    1.643543e+01    1.912499e+08    9.888975e-09    9.052580e-11    9.744045e-09    1.725447e-09   -3.040000e+00    7.122387e-01    1.765611e+00
    7.289466e-01    7.789572e+00    1.631654e+01    1.914439e+08    9.887865e-09    8.765265e-11    9.739600e-09    1.724969e-09   -3.030000e+00    7.122387e-01    1.757238e+00
    7.348955e-01    8.144504e+00    1.619756e+01    1.916193e+08    9.886805e-09    8.487960e-11    9.735100e-09    1.724492e-09   -3.020000e+00    7.122387e-01    1.748874e+00
    7.408636e-01    8.523736e+00    1.607848e+01    1.917750e+08    9.885790e-09    8.220305e-11    9.730545e-09    1.724017e-09   -3.010000e+00    7.122387e-01    1.740520e+00
    7.468476e-01    8.929054e+00    1.595932e+01    1.919101e+08    9.884820e-09    7.961945e-11    9.725935e-09    1.723543e-09   -3.000000e+00    7.122387e-01    1.732175e+00
    7.528422e-01    9.362330e+00    1.584010e+01    1.920233e+08    9.883895e-09    7.712550e-11    9.721275e-09    1.723071e-09   -2.990000e+00    7.122387e-01    1.723840e+00
    7.588434e-01    9.825528e+00    1.572082e+01    1.921137e+08    9.883010e-09    7.471790e-11    9.716565e-09    1.722600e-09   -2.980000e+00    7.122387e-01    1.715515e+00
    7.648474e-01    1.032069e+01    1.560151e+01    1.921805e+08    9.882170e-09    7.239355e-11    9.711805e-09    1.722133e-09   -2.970000e+00    7.122387e-01    1.707199e+00
    7.708491e-01    1.084993e+01    1.548218e+01    1.922227e+08    9.881360e-09    7.014930e-11    9.706995e-09    1.721666e-09   -2.960000e+00    7.122387e-01    1.698892e+00
    7.768442e-01    1.141541e+01    1.536283e+01    1.922393e+08    9.880595e-09    6.798235e-11    9.702145e-09    1.721201e-09   -2.950000e+00    7.122387e-01    1.690595e+00
    7.828293e-01    1.201934e+01    1.524349e+01    1.922298e+08    9.879860e-09    6.588985e-11    9.697245e-09    1.720738e-09   -2.940000e+00    7.122387e-01    1.682308e+00
    7.888000e-01    1.266394e+01    1.512417e+01    1.921934e+08    9.879160e-09    6.386900e-11    9.692305e-09    1.720278e-09   -2.930000e+00    7.122387e-01    1.674030e+00
    7.947523e-01    1.335144e+01    1.500490e+01    1.921296e+08    9.878490e-09    6.191725e-11    9.687325e-09    1.719819e-09   -2.920000e+00    7.122387e-01    1.665761e+00
    8.006835e-01    1.408405e+01    1.488568e+01    1.920379e+08    9.877855e-09    6.003210e-11    9.682300e-09    1.719362e-09   -2.910000e+00    7.122387e-01    1.657502e+00
    8.065909e-01    1.486389e+01    1.476653e+01    1.919181e+08    9.877245e-09    5.821100e-11    9.677240e-09    1.718907e-09   -2.900000e+00    7.122387e-01    1.649253e+00
    8.124714e-01    1.569305e+01    1.464747e+01    1.917699e+08    9.876665e-09    5.645170e-11    9.672140e-09    1.718453e-09   -2.890000e+00    7.122387e-01    1.641012e+00
    8.183235e-01    1.657345e+01    1.452852e+01    1.915934e+08    9.876110e-09    5.475190e-11    9.667000e-09    1.718002e-09   -2.880000e+00    7.122387e-01    1.632781e+00
    8.241458e-01    1.750692e+01    1.440970e+01    1.913886e+08    9.875585e-09    5.310940e-11    9.661825e-09    1.717552e-09   -2.870000e+00    7.122387e-01    1.624560e+00
    8.299375e-01    1.849509e+01    1.429101e+01    1.911559e+08    9.875080e-09    5.152220e-11    9.656615e-09    1.717105e-09   -2.860000e+00    7.122387e-01    1.616347e+00
    8.356975e-01    1.953939e+01    1.417248e+01    1.908956e+08    9.874595e-09    4.998816e-11    9.651370e-09    1.716659e-09   -2.850000e+00    7.122387e-01    1.608145e+00
    8.414261e-01    2.064100e+01    1.405414e+01    1.906081e+08    9.874135e-09    4.850541e-11    9.646085e-09    1.716214e-09   -2.840000e+00    7.122387e-01    1.599951e+00
    8.471249e-01    2.180092e+01    1.393598e+01    1.902940e+08    9.873700e-09    4.707207e-11    9.640775e-09    1.715773e-09   -2.830000e+00    7.122387e-01    1.591766e+00
    8.527935e-01    2.301980e+01    1.381804e+01    1.899542e+08    9.873280e-09    4.568632e-11    9.635425e-09    1.715332e-09   -2.820000e+00    7.122387e-01    1.583591e+00
    8.584346e-01    2.429804e+01    1.370031e+01    1.895894e+08    9.872875e-09    4.434646e-11    9.630050e-09    1.714893e-09   -2.810000e+00    7.122387e-01    1.575425e+00
    8.640496e-01    2.563573e+01    1.358282e+01    1.892003e+08    9.872495e-09    4.305081e-11    9.624640e-09    1.714456e-09   -2.800000e+00    7.122387e-01    1.567269e+00
    8.696403e-01    2.703270e+01    1.346559e+01    1.887881e+08    9.872125e-09    4.179776e-11    9.619200e-09    1.714020e-09   -2.790000e+00    7.122387e-01    1.559121e+00
    8.752103e-01    2.848845e+01    1.334862e+01    1.883535e+08    9.871775e-09    4.058578e-11    9.613730e-09    1.713586e-09   -2.780000e+00    7.122387e-01    1.550983e+00
    8.807616e-01    3.000220e+01    1.323194e+01    1.878977e+08    9.871435e-09    3.941339e-11    9.608230e-09    1.713155e-09   -2.770000e+00    7.122387e-01    1.542854e+00
    8.862971e-01    3.157292e+01    1.311555e+01    1.874216e+08    9.871115e-09    3.827914e-11    9.602700e-09    1.712723e-09   -2.760000e+00    7.122387e-01    1.534734e+00
    8.918205e-01    3.319928e+01    1.299946e+01    1.869262e+08    9.870805e-09    3.718168e-11    9.597140e-09    1.712294e-09   -2.750000e+00    7.122387e-01    1.526623e+00
    8.973345e-01    3.487977e+01    1.288369e+01    1.864126e+08    9.870505e-09    3.611968e-11    9.591555e-09    1.711866e-09   -2.740000e+00    7.122387e-01    1.518521e+00
    9.028429e-01    3.661265e+01    1.276824e+01    1.858817e+08    9.870220e-09    3.509188e-11    9.585940e-09    1.711440e-09   -2.730000e+00    7.122387e-01    1.510429e+00
    9.083488e-01    3.839600e+01    1.265313e+01    1.853345e+08    9.869940e-09    3.409705e-11    9.580300e-09    1.711014e-09   -2.720000e+00    7.122387e-01    1.502345e+00
    9.138553e-01    4.022779e+01    1.253838e+01    1.847719e+08    9.869675e-09    3.313401e-11    9.574635e-09    1.710590e-09   -2.710000e+00    7.122387e-01    1.494270e+00
    9.193664e-01    4.210582e+01    1.242397e+01    1.841950e+08    9.869415e-09    3.220164e-11    9.568940e-09    1.710167e-09   -2.700000e+00    7.122387e-01    1.486205e+00
    9.248850e-01    4.402786e+01    1.230993e+01    1.836044e+08    9.869165e-09    3.129885e-11    9.563220e-09    1.709746e-09   -2.690000e+00    7.122387e-01    1.478148e+00
    9.304144e-01    4.599161e+01    1.219627e+01    1.830010e+08    9.868925e-09    3.042459e-11    9.557470e-09    1.709325e-09   -2.680000e+00    7.122387e-01    1.470101e+00
    9.359574e-01    4.799473e+01    1.208298e+01    1.823857e+08    9.868690e-09    2.957786e-11    9.551700e-09    1.708905e-09   -2.670000e+00    7.122387e-01    1.462062e+00
    9.415175e-01    5.003493e+01    1.197009e+01    1.817592e+08    9.868460e-09    2.875768e-11    9.545905e-09    1.708486e-09   -2.660000e+00    7.122387e-01    1.454033e+00
    9.470976e-01    5.210992e+01    1.185759e+01    1.811222e+08    9.868235e-09    2.796313e-11    9.540080e-09    1.708069e-09   -2.650000e+00    7.122387e-01    1.446012e+00
    9.527010e-01    5.421747e+01    1.174548e+01    1.804752e+08    9.868020e-09    2.719331e-11    9.534235e-09    1.707652e-09   -2.640000e+00    7.122387e-01    1.438000e+00
    9.583300e-01    5.635544e+01    1.163378e+01    1.798190e+08    9.867805e-09    2.644736e-11    9.528360e-09    1.707236e-09   -2.630000e+00    7.122387e-01    1.429998e+00
    9.639866e-01    5.852171e+01    1.152251e+01    1.791541e+08    9.867595e-09    2.572445e-11    9.522465e-09    1.706820e-09   -2.620000e+00    7.122387e-01    1.422004e+00
    9.696748e-01    6.071439e+01    1.141164e+01    1.784811e+08    9.867385e-09    2.502377e-11    9.516545e-09    1.706405e-09   -2.610000e+00    7.122387e-01    1.414019e+00
    9.753968e-01    6.293160e+01    1.130120e+01    1.778003e+08    9.867185e-09    2.434458e-11    9.510600e-09    1.705991e-09   -2.600000e+00    7.122387e-01    1.406042e+00
    9.811548e-01    6.517161e+01    1.119118e+01    1.771125e+08    9.866980e-09    2.368611e-11    9.504630e-09    1.705578e-09   -2.590000e+00    7.122387e-01    1.398075e+00
    9.869504e-01    6.743282e+01    1.108159e+01    1.764177e+08    9.866780e-09    2.304766e-11    9.498635e-09    1.705165e-09   -2.580000e+00    7.122387e-01    1.390116e+00
    9.927869e-01    6.971379e+01    1.097244e+01    1.757166e+08    9.866580e-09    2.242855e-11    9.492620e-09    1.704752e-09   -2.570000e+00    7.122387e-01    1.382167e+00
    9.986667e-01    7.201316e+01    1.086373e+01    1.750095e+08    9.866380e-09    2.182811e-11    9.486580e-09    1.704340e-09   -2.560000e+00    7.122387e-01    1.374226e+00
    1.004591e+00    7.432977e+01    1.075545e+01    1.742967e+08    9.866180e-09    2.124571e-11    9.480515e-09    1.703927e-09   -2.550000e+00    7.122387e-01    1.366294e+00
    1.010562e+00    7.666250e+01    1.064763e+01    1.735785e+08    9.865980e-09    2.068075e-11    9.474425e-09    1.703516e-09   -2.540000e+00    7.122387e-01    1.358370e+00
    1.016583e+00    7.901041e+01    1.054026e+01    1.728552e+08    9.865780e-09    2.013262e-11    9.468315e-09    1.703105e-09   -2.530000e+00    7.122387e-01    1.350455e+00
    1.022654e+00    8.137270e+01    1.043333e+01    1.721271e+08    9.865580e-09    1.960078e-11    9.462175e-09    1.702693e-09   -2.520000e+00    7.122387e-01    1.342549e+00
    1.028779e+00    8.374870e+01    1.032686e+01    1.713945e+08    9.865375e-09    1.908466e-11    9.456020e-09    1.702282e-09   -2.510000e+00    7.122387e-01    1.334652e+00
    1.034957e+00    8.613770e+01    1.022085e+01    1.706574e+08    9.865170e-09    1.858374e-11    9.449835e-09    1.701871e-09   -2.500000e+00    7.122387e-01    1.326763e+00
    1.041193e+00    8.853937e+01    1.011530e+01    1.699162e+08    9.864960e-09    1.809752e-11    9.443630e-09    1.701459e-09   -2.490000e+00    7.122387e-01    1.318883e+00
    1.047488e+00    9.095323e+01    1.001021e+01    1.691712e+08    9.864745e-09    1.762552e-11    9.437400e-09    1.701048e-09   -2.480000e+00    7.122387e-01    1.311012e+00
    1.053841e+00    9.337898e+01    9.905590e+00    1.684222e+08    9.864530e-09    1.716724e-11    9.431145e-09    1.700636e-09   -2.470000e+00    7.122387e-01    1.303149e+00
    1.060258e+00    9.581648e+01    9.801435e+00    1.676696e+08    9.864310e-09    1.672227e-11    9.424865e-09    1.700224e-09   -2.460000e+00    7.122387e-01    1.295295e+00
    1.066738e+00    9.826560e+01    9.697750e+00    1.669137e+08    9.864085e-09    1.629013e-11    9.418565e-09    1.699812e-09   -2.450000e+00    7.122387e-01    1.287449e+00
    1.073283e+00    1.007262e+02    9.594535e+00    1.661542e+08    9.863860e-09    1.587044e-11    9.412240e-09    1.699399e-09   -2.440000e+00    7.122387e-01    1.279613e+00
    1.079896e+00    1.031985e+02    9.491795e+00    1.653917e+08    9.863625e-09    1.546276e-11    9.405890e-09    1.698986e-09   -2.430000e+00    7.122387e-01    1.271784e+00
    1.086577e+00    1.056824e+02    9.389530e+00    1.646261e+08    9.863385e-09    1.506672e-11    9.399515e-09    1.698573e-09   -2.420000e+00    7.122387e-01    1.263964e+00
    1.093329e+00    1.081782e+02    9.287745e+00    1.638576e+08    9.863135e-09    1.468194e-11    9.393115e-09    1.698159e-09   -2.410000e+00    7.122387e-01    1.256153e+00
    1.100154e+00    1.106859e+02    9.186440e+00    1.630860e+08    9.862885e-09    1.430806e-11    9.386695e-09    1.697744e-09   -2.400000e+00    7.122387e-01    1.248350e+00
    1.107051e+00    1.132059e+02    9.085620e+00    1.623117e+08    9.862625e-09    1.394473e-11    9.380245e-09    1.697329e-09   -2.390000e+00    7.122387e-01    1.240556e+00
    1.114026e+00    1.157385e+02    8.985275e+00    1.615348e+08    9.862360e-09    1.359160e-11    9.373775e-09    1.696913e-09   -2.380000e+00    7.122387e-01    1.232770e+00
    1.121078e+00    1.182841e+02    8.885420e+00    1.607552e+08    9.862085e-09    1.324835e-11    9.367280e-09    1.696496e-09   -2.370000e+00    7.122387e-01    1.224992e+00
    1.128208e+00    1.208429e+02    8.786055e+00    1.599731e+08    9.861800e-09    1.291467e-11    9.360755e-09    1.696078e-09   -2.360000e+00    7.122387e-01    1.217223e+00
    1.135420e+00    1.234155e+02    8.687175e+00    1.591885e+08    9.861510e-09    1.259027e-11    9.354210e-09    1.695659e-09   -2.350000e+00    7.122387e-01    1.209462e+00
    1.142715e+00    1.260022e+02    8.588780e+00    1.584015e+08    9.861210e-09    1.227483e-11    9.347640e-09    1.695239e-09   -2.340000e+00    7.122387e-01    1.201710e+00
    1.150093e+00    1.286035e+02    8.490885e+00    1.576120e+08    9.860905e-09    1.196808e-11    9.341040e-09    1.694819e-09   -2.330000e+00    7.122387e-01    1.193966e+00
    1.157559e+00    1.312199e+02    8.393475e+00    1.568204e+08    9.860585e-09    1.166976e-11    9.334415e-09    1.694396e-09   -2.320000e+00    7.122387e-01    1.186231e+00
    1.165113e+00    1.338522e+02    8.296565e+00    1.560265e+08    9.860255e-09    1.137960e-11    9.327770e-09    1.693973e-09   -2.310000e+00    7.122387e-01    1.178504e+00
    1.172757e+00    1.365006e+02    8.200150e+00    1.552304e+08    9.859920e-09    1.109734e-11    9.321095e-09    1.693549e-09   -2.300000e+00    7.122387e-01    1.170785e+00
    1.180493e+00    1.391656e+02    8.104230e+00    1.544321e+08    9.859570e-09    1.082273e-11    9.314390e-09    1.693124e-09   -2.290000e+00    7.122387e-01    1.163075e+00
    1.188324e+00    1.418481e+02    8.008810e+00    1.536317e+08    9.859210e-09    1.055555e-11    9.307660e-09    1.692697e-09   -2.280000e+00    7.122387e-01    1.155372e+00
    1.196250e+00    1.445487e+02    7.913890e+00    1.528292e+08    9.858840e-09    1.029557e-11    9.300905e-09    1.692268e-09   -2.270000e+00    7.122387e-01    1.147678e+00
    1.204274e+00    1.472676e+02    7.819470e+00    1.520245e+08    9.858460e-09    1.004257e-11    9.294125e-09    1.691838e-09   -2.260000e+00    7.122387e-01    1.139993e+00
    1.212398e+00    1.500059e+02    7.725555e+00    1.512180e+08    9.858065e-09    9.796330e-12    9.287315e-09    1.691407e-09   -2.250000e+00    7.122387e-01    1.132315e+00
    1.220626e+00    1.527640e+02    7.632140e+00    1.504094e+08    9.857660e-09    9.556645e-12    9.280475e-09    1.690973e-09   -2.240000e+00    7.122387e-01    1.124646e+00
    1.228956e+00    1.555428e+02    7.539235e+00    1.495989e+08    9.857240e-09    9.323320e-12    9.273610e-09    1.690538e-09   -2.230000e+00    7.122387e-01    1.116985e+00
    1.237393e+00    1.583427e+02    7.446835e+00    1.487864e+08    9.856810e-09    9.096165e-12    9.266715e-09    1.690102e-09   -2.220000e+00    7.122387e-01    1.109332e+00
