# GF180MCU-D pfet_03v3 gm/ID Processed Lookup Table
# Corner: typical
# Temperature: 85C
# W = 2.0 um
# L = 5 um (5000 nm)
# Columns: gm/id [1/V]  gm/gds [V/V]  id/W [A/m]  ft [Hz]  Cgg/W [F/m]  Cgd/W [F/m]  Cgs/W [F/m]  Cdb/W [F/m]  vgs [V]  vth [V]  vdsat [V]
# vdsat = BSIM saturation voltage (|VDS|_sat, positive); use for headroom / saturation / cascode-bias calculations
#           gm/id          gm/gds            id/W              ft           Cgg/W           Cgd/W           Cgs/W           Cdb/W             vgs             vth           vdsat
    5.969876e-01    3.478085e+00    1.159465e+01    6.678932e+07    1.649439e-08    3.580343e-10    1.638208e-08    2.915871e-09   -3.300000e+00    7.096937e-01    1.964238e+00
    6.017192e-01    3.570175e+00    1.152544e+01    6.693961e+07    1.648877e-08    3.459907e-10    1.637834e-08    2.915085e-09   -3.290000e+00    7.096937e-01    1.955664e+00
    6.065134e-01    3.666727e+00    1.145596e+01    6.708827e+07    1.648334e-08    3.343522e-10    1.637437e-08    2.914291e-09   -3.280000e+00    7.096937e-01    1.947101e+00
    6.113598e-01    3.768043e+00    1.138641e+01    6.723506e+07    1.647813e-08    3.231077e-10    1.637019e-08    2.913491e-09   -3.270000e+00    7.096937e-01    1.938548e+00
    6.162619e-01    3.874453e+00    1.131673e+01    6.738001e+07    1.647310e-08    3.122456e-10    1.636579e-08    2.912685e-09   -3.260000e+00    7.096937e-01    1.930005e+00
    6.212205e-01    3.986317e+00    1.124693e+01    6.752300e+07    1.646827e-08    3.017549e-10    1.636120e-08    2.911873e-09   -3.250000e+00    7.096937e-01    1.921472e+00
    6.262345e-01    4.104020e+00    1.117699e+01    6.766385e+07    1.646363e-08    2.916244e-10    1.635641e-08    2.911056e-09   -3.240000e+00    7.096937e-01    1.912950e+00
    6.313048e-01    4.227987e+00    1.110694e+01    6.780255e+07    1.645916e-08    2.818433e-10    1.635142e-08    2.910234e-09   -3.230000e+00    7.096937e-01    1.904439e+00
    6.364304e-01    4.358673e+00    1.103676e+01    6.793887e+07    1.645487e-08    2.724007e-10    1.634626e-08    2.909410e-09   -3.220000e+00    7.096937e-01    1.895937e+00
    6.416116e-01    4.496577e+00    1.096645e+01    6.807271e+07    1.645075e-08    2.632860e-10    1.634091e-08    2.908582e-09   -3.210000e+00    7.096937e-01    1.887446e+00
    6.468477e-01    4.642245e+00    1.089603e+01    6.820397e+07    1.644678e-08    2.544888e-10    1.633539e-08    2.907751e-09   -3.200000e+00    7.096937e-01    1.878965e+00
    6.521378e-01    4.796261e+00    1.082550e+01    6.833239e+07    1.644298e-08    2.459989e-10    1.632970e-08    2.906918e-09   -3.190000e+00    7.096937e-01    1.870494e+00
    6.574817e-01    4.959273e+00    1.075484e+01    6.845789e+07    1.643934e-08    2.378062e-10    1.632385e-08    2.906084e-09   -3.180000e+00    7.096937e-01    1.862034e+00
    6.628777e-01    5.131976e+00    1.068407e+01    6.858019e+07    1.643583e-08    2.299011e-10    1.631784e-08    2.905249e-09   -3.170000e+00    7.096937e-01    1.853584e+00
    6.683253e-01    5.315134e+00    1.061320e+01    6.869913e+07    1.643248e-08    2.222737e-10    1.631169e-08    2.904413e-09   -3.160000e+00    7.096937e-01    1.845143e+00
    6.738228e-01    5.509574e+00    1.054222e+01    6.881446e+07    1.642926e-08    2.149150e-10    1.630538e-08    2.903576e-09   -3.150000e+00    7.096937e-01    1.836713e+00
    6.793687e-01    5.716196e+00    1.047113e+01    6.892592e+07    1.642618e-08    2.078157e-10    1.629894e-08    2.902740e-09   -3.140000e+00    7.096937e-01    1.828293e+00
    6.849612e-01    5.935989e+00    1.039994e+01    6.903332e+07    1.642321e-08    2.009669e-10    1.629236e-08    2.901904e-09   -3.130000e+00    7.096937e-01    1.819884e+00
    6.905986e-01    6.170019e+00    1.032866e+01    6.913632e+07    1.642039e-08    1.943599e-10    1.628565e-08    2.901069e-09   -3.120000e+00    7.096937e-01    1.811484e+00
    6.962778e-01    6.419444e+00    1.025728e+01    6.923466e+07    1.641767e-08    1.879864e-10    1.627881e-08    2.900235e-09   -3.110000e+00    7.096937e-01    1.803094e+00
    7.019970e-01    6.685524e+00    1.018582e+01    6.932800e+07    1.641507e-08    1.818382e-10    1.627184e-08    2.899402e-09   -3.100000e+00    7.096937e-01    1.794715e+00
    7.077532e-01    6.969634e+00    1.011428e+01    6.941604e+07    1.641258e-08    1.759073e-10    1.626476e-08    2.898571e-09   -3.090000e+00    7.096937e-01    1.786345e+00
    7.135434e-01    7.273252e+00    1.004265e+01    6.949848e+07    1.641019e-08    1.701860e-10    1.625757e-08    2.897742e-09   -3.080000e+00    7.096937e-01    1.777985e+00
    7.193640e-01    7.597982e+00    9.970960e+00    6.957487e+07    1.640791e-08    1.646669e-10    1.625026e-08    2.896915e-09   -3.070000e+00    7.096937e-01    1.769636e+00
    7.252121e-01    7.945560e+00    9.899200e+00    6.964495e+07    1.640574e-08    1.593427e-10    1.624285e-08    2.896090e-09   -3.060000e+00    7.096937e-01    1.761296e+00
    7.310835e-01    8.317846e+00    9.827380e+00    6.970830e+07    1.640365e-08    1.542063e-10    1.623533e-08    2.895268e-09   -3.050000e+00    7.096937e-01    1.752966e+00
    7.369738e-01    8.716847e+00    9.755510e+00    6.976452e+07    1.640165e-08    1.492511e-10    1.622771e-08    2.894448e-09   -3.040000e+00    7.096937e-01    1.744647e+00
    7.428791e-01    9.144709e+00    9.683595e+00    6.981326e+07    1.639974e-08    1.444704e-10    1.621999e-08    2.893631e-09   -3.030000e+00    7.096937e-01    1.736337e+00
    7.487957e-01    9.603742e+00    9.611640e+00    6.985417e+07    1.639792e-08    1.398579e-10    1.621218e-08    2.892817e-09   -3.020000e+00    7.096937e-01    1.728037e+00
    7.547191e-01    1.009639e+01    9.539655e+00    6.988689e+07    1.639617e-08    1.354074e-10    1.620427e-08    2.892006e-09   -3.010000e+00    7.096937e-01    1.719747e+00
    7.606448e-01    1.062524e+01    9.467645e+00    6.991105e+07    1.639450e-08    1.311130e-10    1.619628e-08    2.891198e-09   -3.000000e+00    7.096937e-01    1.711466e+00
    7.665680e-01    1.119304e+01    9.395625e+00    6.992630e+07    1.639291e-08    1.269691e-10    1.618820e-08    2.890392e-09   -2.990000e+00    7.096937e-01    1.703196e+00
    7.724843e-01    1.180267e+01    9.323600e+00    6.993232e+07    1.639138e-08    1.229699e-10    1.618004e-08    2.889591e-09   -2.980000e+00    7.096937e-01    1.694935e+00
    7.783903e-01    1.245714e+01    9.251580e+00    6.992887e+07    1.638993e-08    1.191104e-10    1.617180e-08    2.888793e-09   -2.970000e+00    7.096937e-01    1.686684e+00
    7.842810e-01    1.315959e+01    9.179580e+00    6.991566e+07    1.638853e-08    1.153852e-10    1.616347e-08    2.887997e-09   -2.960000e+00    7.096937e-01    1.678443e+00
    7.901533e-01    1.391327e+01    9.107600e+00    6.989249e+07    1.638720e-08    1.117894e-10    1.615508e-08    2.887206e-09   -2.950000e+00    7.096937e-01    1.670212e+00
    7.960037e-01    1.472149e+01    9.035655e+00    6.985921e+07    1.638594e-08    1.083184e-10    1.614661e-08    2.886418e-09   -2.940000e+00    7.096937e-01    1.661990e+00
    8.018286e-01    1.558764e+01    8.963755e+00    6.981562e+07    1.638472e-08    1.049673e-10    1.613807e-08    2.885633e-09   -2.930000e+00    7.096937e-01    1.653778e+00
    8.076263e-01    1.651516e+01    8.891910e+00    6.976173e+07    1.638356e-08    1.017319e-10    1.612946e-08    2.884852e-09   -2.920000e+00    7.096937e-01    1.645576e+00
    8.133939e-01    1.750749e+01    8.820130e+00    6.969748e+07    1.638246e-08    9.860770e-11    1.612078e-08    2.884074e-09   -2.910000e+00    7.096937e-01    1.637383e+00
    8.191298e-01    1.856803e+01    8.748430e+00    6.962290e+07    1.638139e-08    9.559080e-11    1.611204e-08    2.883300e-09   -2.900000e+00    7.096937e-01    1.629201e+00
    8.248331e-01    1.970013e+01    8.676810e+00    6.953800e+07    1.638038e-08    9.267715e-11    1.610323e-08    2.882529e-09   -2.890000e+00    7.096937e-01    1.621027e+00
    8.305026e-01    2.090706e+01    8.605295e+00    6.944298e+07    1.637942e-08    8.986290e-11    1.609435e-08    2.881761e-09   -2.880000e+00    7.096937e-01    1.612864e+00
    8.361390e-01    2.219194e+01    8.533880e+00    6.933798e+07    1.637850e-08    8.714440e-11    1.608543e-08    2.880996e-09   -2.870000e+00    7.096937e-01    1.604709e+00
    8.417416e-01    2.355772e+01    8.462585e+00    6.922316e+07    1.637761e-08    8.451815e-11    1.607643e-08    2.880235e-09   -2.860000e+00    7.096937e-01    1.596565e+00
    8.473119e-01    2.500716e+01    8.391420e+00    6.909884e+07    1.637677e-08    8.198070e-11    1.606738e-08    2.879478e-09   -2.850000e+00    7.096937e-01    1.588430e+00
    8.528518e-01    2.654276e+01    8.320385e+00    6.896525e+07    1.637596e-08    7.952880e-11    1.605828e-08    2.878723e-09   -2.840000e+00    7.096937e-01    1.580305e+00
    8.583617e-01    2.816673e+01    8.249500e+00    6.882273e+07    1.637519e-08    7.715930e-11    1.604911e-08    2.877971e-09   -2.830000e+00    7.096937e-01    1.572189e+00
    8.638444e-01    2.988102e+01    8.178770e+00    6.867159e+07    1.637444e-08    7.486920e-11    1.603989e-08    2.877223e-09   -2.820000e+00    7.096937e-01    1.564082e+00
    8.693027e-01    3.168721e+01    8.108200e+00    6.851219e+07    1.637373e-08    7.265550e-11    1.603062e-08    2.876477e-09   -2.810000e+00    7.096937e-01    1.555985e+00
    8.747387e-01    3.358654e+01    8.037800e+00    6.834490e+07    1.637305e-08    7.051550e-11    1.602130e-08    2.875735e-09   -2.800000e+00    7.096937e-01    1.547898e+00
    8.801556e-01    3.557992e+01    7.967580e+00    6.817006e+07    1.637240e-08    6.844645e-11    1.601193e-08    2.874995e-09   -2.790000e+00    7.096937e-01    1.539820e+00
    8.855556e-01    3.766783e+01    7.897550e+00    6.798807e+07    1.637177e-08    6.644575e-11    1.600251e-08    2.874257e-09   -2.780000e+00    7.096937e-01    1.531751e+00
    8.909432e-01    3.985042e+01    7.827710e+00    6.779929e+07    1.637117e-08    6.451095e-11    1.599304e-08    2.873523e-09   -2.770000e+00    7.096937e-01    1.523692e+00
    8.963209e-01    4.212746e+01    7.758070e+00    6.760409e+07    1.637059e-08    6.263965e-11    1.598352e-08    2.872792e-09   -2.760000e+00    7.096937e-01    1.515642e+00
    9.016926e-01    4.449836e+01    7.688635e+00    6.740287e+07    1.637003e-08    6.082950e-11    1.597395e-08    2.872063e-09   -2.750000e+00    7.096937e-01    1.507602e+00
    9.070611e-01    4.696220e+01    7.619415e+00    6.719596e+07    1.636949e-08    5.907830e-11    1.596433e-08    2.871335e-09   -2.740000e+00    7.096937e-01    1.499571e+00
    9.124293e-01    4.951767e+01    7.550415e+00    6.698365e+07    1.636897e-08    5.738400e-11    1.595467e-08    2.870611e-09   -2.730000e+00    7.096937e-01    1.491549e+00
    9.178021e-01    5.216324e+01    7.481635e+00    6.676634e+07    1.636847e-08    5.574440e-11    1.594496e-08    2.869889e-09   -2.720000e+00    7.096937e-01    1.483537e+00
    9.231817e-01    5.489703e+01    7.413080e+00    6.654429e+07    1.636798e-08    5.415765e-11    1.593521e-08    2.869169e-09   -2.710000e+00    7.096937e-01    1.475534e+00
    9.285716e-01    5.771704e+01    7.344765e+00    6.631791e+07    1.636751e-08    5.262185e-11    1.592542e-08    2.868451e-09   -2.700000e+00    7.096937e-01    1.467540e+00
    9.339747e-01    6.062083e+01    7.276680e+00    6.608730e+07    1.636706e-08    5.113510e-11    1.591558e-08    2.867735e-09   -2.690000e+00    7.096937e-01    1.459555e+00
    9.393939e-01    6.360600e+01    7.208840e+00    6.585284e+07    1.636661e-08    4.969575e-11    1.590569e-08    2.867021e-09   -2.680000e+00    7.096937e-01    1.451580e+00
    9.448324e-01    6.666989e+01    7.141245e+00    6.561478e+07    1.636618e-08    4.830204e-11    1.589577e-08    2.866309e-09   -2.670000e+00    7.096937e-01    1.443614e+00
    9.502933e-01    6.980972e+01    7.073895e+00    6.537331e+07    1.636575e-08    4.695237e-11    1.588579e-08    2.865598e-09   -2.660000e+00    7.096937e-01    1.435657e+00
    9.557787e-01    7.302272e+01    7.006800e+00    6.512868e+07    1.636534e-08    4.564520e-11    1.587579e-08    2.864889e-09   -2.650000e+00    7.096937e-01    1.427709e+00
    9.612923e-01    7.630594e+01    6.939955e+00    6.488110e+07    1.636493e-08    4.437901e-11    1.586574e-08    2.864181e-09   -2.640000e+00    7.096937e-01    1.419771e+00
    9.668351e-01    7.965656e+01    6.873375e+00    6.463074e+07    1.636452e-08    4.315238e-11    1.585564e-08    2.863474e-09   -2.630000e+00    7.096937e-01    1.411841e+00
    9.724110e-01    8.307156e+01    6.807050e+00    6.437776e+07    1.636414e-08    4.196391e-11    1.584551e-08    2.862769e-09   -2.620000e+00    7.096937e-01    1.403921e+00
    9.780210e-01    8.654808e+01    6.740990e+00    6.412233e+07    1.636375e-08    4.081227e-11    1.583533e-08    2.862065e-09   -2.610000e+00    7.096937e-01    1.396010e+00
    9.836686e-01    9.008341e+01    6.675195e+00    6.386463e+07    1.636336e-08    3.969618e-11    1.582511e-08    2.861362e-09   -2.600000e+00    7.096937e-01    1.388108e+00
    9.893557e-01    9.367471e+01    6.609665e+00    6.360479e+07    1.636298e-08    3.861441e-11    1.581486e-08    2.860660e-09   -2.590000e+00    7.096937e-01    1.380215e+00
    9.950844e-01    9.731941e+01    6.544410e+00    6.334296e+07    1.636259e-08    3.756576e-11    1.580456e-08    2.859959e-09   -2.580000e+00    7.096937e-01    1.372331e+00
    1.000857e+00    1.010147e+02    6.479420e+00    6.307916e+07    1.636222e-08    3.654910e-11    1.579422e-08    2.859258e-09   -2.570000e+00    7.096937e-01    1.364456e+00
    1.006674e+00    1.047585e+02    6.414710e+00    6.281361e+07    1.636184e-08    3.556332e-11    1.578384e-08    2.858558e-09   -2.560000e+00    7.096937e-01    1.356590e+00
    1.012540e+00    1.085484e+02    6.350270e+00    6.254640e+07    1.636146e-08    3.460738e-11    1.577343e-08    2.857859e-09   -2.550000e+00    7.096937e-01    1.348733e+00
    1.018453e+00    1.123820e+02    6.286110e+00    6.227752e+07    1.636108e-08    3.368024e-11    1.576296e-08    2.857159e-09   -2.540000e+00    7.096937e-01    1.340886e+00
    1.024419e+00    1.162576e+02    6.222230e+00    6.200717e+07    1.636070e-08    3.278093e-11    1.575247e-08    2.856461e-09   -2.530000e+00    7.096937e-01    1.333047e+00
    1.030438e+00    1.201730e+02    6.158630e+00    6.173541e+07    1.636032e-08    3.190852e-11    1.574193e-08    2.855762e-09   -2.520000e+00    7.096937e-01    1.325217e+00
    1.036511e+00    1.241267e+02    6.095310e+00    6.146223e+07    1.635993e-08    3.106208e-11    1.573135e-08    2.855063e-09   -2.510000e+00    7.096937e-01    1.317396e+00
    1.042641e+00    1.281169e+02    6.032270e+00    6.118782e+07    1.635954e-08    3.024075e-11    1.572074e-08    2.854365e-09   -2.500000e+00    7.096937e-01    1.309584e+00
    1.048829e+00    1.321422e+02    5.969520e+00    6.091212e+07    1.635914e-08    2.944368e-11    1.571008e-08    2.853666e-09   -2.490000e+00    7.096937e-01    1.301781e+00
    1.055077e+00    1.362015e+02    5.907055e+00    6.063528e+07    1.635873e-08    2.867006e-11    1.569939e-08    2.852967e-09   -2.480000e+00    7.096937e-01    1.293987e+00
    1.061387e+00    1.402934e+02    5.844870e+00    6.035733e+07    1.635833e-08    2.791911e-11    1.568865e-08    2.852267e-09   -2.470000e+00    7.096937e-01    1.286201e+00
    1.067760e+00    1.444170e+02    5.782980e+00    6.007832e+07    1.635791e-08    2.719009e-11    1.567786e-08    2.851567e-09   -2.460000e+00    7.096937e-01    1.278425e+00
    1.074198e+00    1.485712e+02    5.721375e+00    5.979826e+07    1.635748e-08    2.648225e-11    1.566705e-08    2.850867e-09   -2.450000e+00    7.096937e-01    1.270657e+00
    1.080702e+00    1.527554e+02    5.660060e+00    5.951719e+07    1.635705e-08    2.579491e-11    1.565619e-08    2.850166e-09   -2.440000e+00    7.096937e-01    1.262898e+00
    1.087274e+00    1.569689e+02    5.599040e+00    5.923515e+07    1.635661e-08    2.512741e-11    1.564529e-08    2.849464e-09   -2.430000e+00    7.096937e-01    1.255148e+00
    1.093917e+00    1.612114e+02    5.538310e+00    5.895228e+07    1.635615e-08    2.447907e-11    1.563435e-08    2.848761e-09   -2.420000e+00    7.096937e-01    1.247407e+00
    1.100630e+00    1.654820e+02    5.477870e+00    5.866845e+07    1.635568e-08    2.384929e-11    1.562337e-08    2.848056e-09   -2.410000e+00    7.096937e-01    1.239675e+00
    1.107418e+00    1.697809e+02    5.417725e+00    5.838381e+07    1.635521e-08    2.323745e-11    1.561235e-08    2.847352e-09   -2.400000e+00    7.096937e-01    1.231951e+00
    1.114279e+00    1.741076e+02    5.357875e+00    5.809832e+07    1.635472e-08    2.264298e-11    1.560128e-08    2.846645e-09   -2.390000e+00    7.096937e-01    1.224236e+00
    1.121217e+00    1.784621e+02    5.298325e+00    5.781204e+07    1.635423e-08    2.206533e-11    1.559017e-08    2.845938e-09   -2.380000e+00    7.096937e-01    1.216530e+00
    1.128233e+00    1.828442e+02    5.239065e+00    5.752496e+07    1.635371e-08    2.150394e-11    1.557903e-08    2.845228e-09   -2.370000e+00    7.096937e-01    1.208832e+00
    1.135329e+00    1.872543e+02    5.180105e+00    5.723719e+07    1.635318e-08    2.095830e-11    1.556783e-08    2.844518e-09   -2.360000e+00    7.096937e-01    1.201143e+00
    1.142506e+00    1.916921e+02    5.121445e+00    5.694861e+07    1.635264e-08    2.042791e-11    1.555660e-08    2.843805e-09   -2.350000e+00    7.096937e-01    1.193463e+00
    1.149767e+00    1.961583e+02    5.063080e+00    5.665935e+07    1.635208e-08    1.991229e-11    1.554532e-08    2.843091e-09   -2.340000e+00    7.096937e-01    1.185791e+00
    1.157112e+00    2.006529e+02    5.005015e+00    5.636937e+07    1.635151e-08    1.941096e-11    1.553400e-08    2.842375e-09   -2.330000e+00    7.096937e-01    1.178128e+00
    1.164544e+00    2.051763e+02    4.947254e+00    5.607871e+07    1.635092e-08    1.892348e-11    1.552263e-08    2.841657e-09   -2.320000e+00    7.096937e-01    1.170474e+00
    1.172065e+00    2.097291e+02    4.889792e+00    5.578742e+07    1.635031e-08    1.844941e-11    1.551122e-08    2.840937e-09   -2.310000e+00    7.096937e-01    1.162828e+00
    1.179676e+00    2.143116e+02    4.832631e+00    5.549543e+07    1.634969e-08    1.798835e-11    1.549978e-08    2.840214e-09   -2.300000e+00    7.096937e-01    1.155191e+00
    1.187381e+00    2.189245e+02    4.775773e+00    5.520283e+07    1.634905e-08    1.753987e-11    1.548828e-08    2.839490e-09   -2.290000e+00    7.096937e-01    1.147563e+00
    1.195178e+00    2.235682e+02    4.719218e+00    5.490956e+07    1.634838e-08    1.710358e-11    1.547673e-08    2.838762e-09   -2.280000e+00    7.096937e-01    1.139943e+00
    1.203072e+00    2.282435e+02    4.662967e+00    5.461569e+07    1.634770e-08    1.667912e-11    1.546514e-08    2.838033e-09   -2.270000e+00    7.096937e-01    1.132331e+00
    1.211064e+00    2.329509e+02    4.607021e+00    5.432118e+07    1.634700e-08    1.626612e-11    1.545351e-08    2.837300e-09   -2.260000e+00    7.096937e-01    1.124728e+00
    1.219157e+00    2.376916e+02    4.551379e+00    5.402614e+07    1.634628e-08    1.586423e-11    1.544182e-08    2.836565e-09   -2.250000e+00    7.096937e-01    1.117134e+00
    1.227351e+00    2.424659e+02    4.496044e+00    5.373046e+07    1.634553e-08    1.547309e-11    1.543009e-08    2.835827e-09   -2.240000e+00    7.096937e-01    1.109548e+00
    1.235650e+00    2.472748e+02    4.441015e+00    5.343418e+07    1.634476e-08    1.509241e-11    1.541831e-08    2.835086e-09   -2.230000e+00    7.096937e-01    1.101970e+00
    1.244055e+00    2.521191e+02    4.386293e+00    5.313732e+07    1.634398e-08    1.472185e-11    1.540648e-08    2.834341e-09   -2.220000e+00    7.096937e-01    1.094401e+00
