# GF180MCU-D pfet_03v3 gm/ID Processed Lookup Table
# Corner: typical
# Temperature: 25C
# W = 2.0 um
# L = 5 um (5000 nm)
# Columns: gm/id [1/V]  gm/gds [V/V]  id/W [A/m]  ft [Hz]  Cgg/W [F/m]  Cgd/W [F/m]  Cgs/W [F/m]  Cdb/W [F/m]  vgs [V]  vth [V]  vdsat [V]
# vdsat = BSIM saturation voltage (|VDS|_sat, positive); use for headroom / saturation / cascode-bias calculations
#           gm/id          gm/gds            id/W              ft           Cgg/W           Cgd/W           Cgs/W           Cdb/W             vgs             vth           vdsat
    6.107925e-01    4.138849e+00    1.324314e+01    7.801579e+07    1.650145e-08    3.000006e-10    1.639212e-08    2.904064e-09   -3.300000e+00    7.714557e-01    1.897810e+00
    6.159608e-01    4.269428e+00    1.316225e+01    7.821676e+07    1.649695e-08    2.899092e-10    1.638748e-08    2.903281e-09   -3.290000e+00    7.714557e-01    1.889340e+00
    6.211923e-01    4.407255e+00    1.308099e+01    7.841469e+07    1.649261e-08    2.801666e-10    1.638265e-08    2.902492e-09   -3.280000e+00    7.714557e-01    1.880881e+00
    6.264735e-01    4.552875e+00    1.299964e+01    7.860937e+07    1.648845e-08    2.707621e-10    1.637763e-08    2.901701e-09   -3.270000e+00    7.714557e-01    1.872432e+00
    6.318080e-01    4.706881e+00    1.291811e+01    7.880057e+07    1.648446e-08    2.616850e-10    1.637244e-08    2.900906e-09   -3.260000e+00    7.714557e-01    1.863993e+00
    6.371951e-01    4.869918e+00    1.283641e+01    7.898815e+07    1.648064e-08    2.529249e-10    1.636708e-08    2.900108e-09   -3.250000e+00    7.714557e-01    1.855565e+00
    6.426336e-01    5.042684e+00    1.275453e+01    7.917181e+07    1.647698e-08    2.444715e-10    1.636154e-08    2.899307e-09   -3.240000e+00    7.714557e-01    1.847146e+00
    6.481222e-01    5.225939e+00    1.267248e+01    7.935125e+07    1.647346e-08    2.363148e-10    1.635586e-08    2.898505e-09   -3.230000e+00    7.714557e-01    1.838738e+00
    6.536598e-01    5.420518e+00    1.259027e+01    7.952626e+07    1.647010e-08    2.284449e-10    1.635002e-08    2.897703e-09   -3.220000e+00    7.714557e-01    1.830339e+00
    6.592441e-01    5.627311e+00    1.250788e+01    7.969645e+07    1.646688e-08    2.208523e-10    1.634402e-08    2.896899e-09   -3.210000e+00    7.714557e-01    1.821951e+00
    6.648738e-01    5.847306e+00    1.242535e+01    7.986158e+07    1.646380e-08    2.135277e-10    1.633789e-08    2.896094e-09   -3.200000e+00    7.714557e-01    1.813573e+00
    6.705463e-01    6.081560e+00    1.234266e+01    8.002126e+07    1.646085e-08    2.064618e-10    1.633161e-08    2.895290e-09   -3.190000e+00    7.714557e-01    1.805205e+00
    6.762592e-01    6.331226e+00    1.225983e+01    8.017512e+07    1.645804e-08    1.996457e-10    1.632519e-08    2.894486e-09   -3.180000e+00    7.714557e-01    1.796847e+00
    6.820100e-01    6.597554e+00    1.217685e+01    8.032279e+07    1.645534e-08    1.930709e-10    1.631865e-08    2.893683e-09   -3.170000e+00    7.714557e-01    1.788499e+00
    6.877957e-01    6.881892e+00    1.209373e+01    8.046387e+07    1.645276e-08    1.867289e-10    1.631198e-08    2.892881e-09   -3.160000e+00    7.714557e-01    1.780160e+00
    6.936128e-01    7.185703e+00    1.201049e+01    8.059793e+07    1.645031e-08    1.806115e-10    1.630519e-08    2.892080e-09   -3.150000e+00    7.714557e-01    1.771832e+00
    6.994589e-01    7.510562e+00    1.192712e+01    8.072459e+07    1.644796e-08    1.747108e-10    1.629828e-08    2.891281e-09   -3.140000e+00    7.714557e-01    1.763514e+00
    7.053292e-01    7.858165e+00    1.184364e+01    8.084332e+07    1.644572e-08    1.690190e-10    1.629126e-08    2.890483e-09   -3.130000e+00    7.714557e-01    1.755206e+00
    7.112206e-01    8.230325e+00    1.176005e+01    8.095378e+07    1.644358e-08    1.635287e-10    1.628413e-08    2.889688e-09   -3.120000e+00    7.714557e-01    1.746907e+00
    7.171286e-01    8.628998e+00    1.167637e+01    8.105542e+07    1.644155e-08    1.582326e-10    1.627690e-08    2.888894e-09   -3.110000e+00    7.714557e-01    1.738619e+00
    7.230493e-01    9.056257e+00    1.159259e+01    8.114783e+07    1.643961e-08    1.531239e-10    1.626956e-08    2.888103e-09   -3.100000e+00    7.714557e-01    1.730340e+00
    7.289787e-01    9.514322e+00    1.150873e+01    8.123060e+07    1.643776e-08    1.481956e-10    1.626212e-08    2.887315e-09   -3.090000e+00    7.714557e-01    1.722071e+00
    7.349121e-01    1.000553e+01    1.142480e+01    8.130326e+07    1.643600e-08    1.434412e-10    1.625459e-08    2.886530e-09   -3.080000e+00    7.714557e-01    1.713812e+00
    7.408451e-01    1.053235e+01    1.134081e+01    8.136541e+07    1.643431e-08    1.388543e-10    1.624695e-08    2.885748e-09   -3.070000e+00    7.714557e-01    1.705562e+00
    7.467736e-01    1.109737e+01    1.125676e+01    8.141668e+07    1.643272e-08    1.344288e-10    1.623924e-08    2.884968e-09   -3.060000e+00    7.714557e-01    1.697323e+00
    7.526933e-01    1.170332e+01    1.117268e+01    8.145666e+07    1.643119e-08    1.301588e-10    1.623144e-08    2.884192e-09   -3.050000e+00    7.714557e-01    1.689093e+00
    7.586002e-01    1.235299e+01    1.108858e+01    8.148504e+07    1.642975e-08    1.260387e-10    1.622355e-08    2.883419e-09   -3.040000e+00    7.714557e-01    1.680873e+00
    7.644907e-01    1.304930e+01    1.100445e+01    8.150157e+07    1.642838e-08    1.220628e-10    1.621558e-08    2.882649e-09   -3.030000e+00    7.714557e-01    1.672663e+00
    7.703612e-01    1.379523e+01    1.092033e+01    8.150606e+07    1.642707e-08    1.182259e-10    1.620753e-08    2.881882e-09   -3.020000e+00    7.714557e-01    1.664462e+00
    7.762086e-01    1.459381e+01    1.083620e+01    8.149826e+07    1.642584e-08    1.145227e-10    1.619941e-08    2.881119e-09   -3.010000e+00    7.714557e-01    1.656271e+00
    7.820297e-01    1.544806e+01    1.075211e+01    8.147804e+07    1.642465e-08    1.109485e-10    1.619120e-08    2.880359e-09   -3.000000e+00    7.714557e-01    1.648090e+00
    7.878228e-01    1.636110e+01    1.066804e+01    8.144539e+07    1.642354e-08    1.074983e-10    1.618293e-08    2.879603e-09   -2.990000e+00    7.714557e-01    1.639918e+00
    7.935860e-01    1.733591e+01    1.058402e+01    8.140031e+07    1.642248e-08    1.041676e-10    1.617459e-08    2.878850e-09   -2.980000e+00    7.714557e-01    1.631756e+00
    7.993177e-01    1.837549e+01    1.050005e+01    8.134277e+07    1.642148e-08    1.009520e-10    1.616618e-08    2.878101e-09   -2.970000e+00    7.714557e-01    1.623603e+00
    8.050165e-01    1.948271e+01    1.041616e+01    8.127292e+07    1.642052e-08    9.784720e-11    1.615771e-08    2.877355e-09   -2.960000e+00    7.714557e-01    1.615460e+00
    8.106835e-01    2.066035e+01    1.033235e+01    8.119096e+07    1.641962e-08    9.484915e-11    1.614917e-08    2.876613e-09   -2.950000e+00    7.714557e-01    1.607327e+00
    8.163177e-01    2.191099e+01    1.024864e+01    8.109709e+07    1.641877e-08    9.195380e-11    1.614057e-08    2.875874e-09   -2.940000e+00    7.714557e-01    1.599203e+00
    8.219200e-01    2.323704e+01    1.016504e+01    8.099155e+07    1.641796e-08    8.915740e-11    1.613190e-08    2.875138e-09   -2.930000e+00    7.714557e-01    1.591089e+00
    8.274923e-01    2.464072e+01    1.008155e+01    8.087468e+07    1.641719e-08    8.645630e-11    1.612318e-08    2.874406e-09   -2.920000e+00    7.714557e-01    1.582984e+00
    8.330349e-01    2.612394e+01    9.998195e+00    8.074679e+07    1.641647e-08    8.384695e-11    1.611440e-08    2.873678e-09   -2.910000e+00    7.714557e-01    1.574889e+00
    8.385503e-01    2.768837e+01    9.914975e+00    8.060822e+07    1.641578e-08    8.132595e-11    1.610556e-08    2.872953e-09   -2.900000e+00    7.714557e-01    1.566803e+00
    8.440406e-01    2.933543e+01    9.831915e+00    8.045948e+07    1.641513e-08    7.889010e-11    1.609667e-08    2.872231e-09   -2.890000e+00    7.714557e-01    1.558726e+00
    8.495088e-01    3.106617e+01    9.749010e+00    8.030089e+07    1.641452e-08    7.653620e-11    1.608772e-08    2.871512e-09   -2.880000e+00    7.714557e-01    1.550659e+00
    8.549571e-01    3.288133e+01    9.666280e+00    8.013293e+07    1.641394e-08    7.426125e-11    1.607872e-08    2.870796e-09   -2.870000e+00    7.714557e-01    1.542602e+00
    8.603884e-01    3.478134e+01    9.583730e+00    7.995596e+07    1.641339e-08    7.206230e-11    1.606967e-08    2.870084e-09   -2.860000e+00    7.714557e-01    1.534553e+00
    8.658066e-01    3.676633e+01    9.501365e+00    7.977051e+07    1.641287e-08    6.993665e-11    1.606057e-08    2.869374e-09   -2.850000e+00    7.714557e-01    1.526514e+00
    8.712137e-01    3.883606e+01    9.419205e+00    7.957696e+07    1.641238e-08    6.788160e-11    1.605142e-08    2.868668e-09   -2.840000e+00    7.714557e-01    1.518485e+00
    8.766140e-01    4.099000e+01    9.337245e+00    7.937574e+07    1.641193e-08    6.589450e-11    1.604222e-08    2.867964e-09   -2.830000e+00    7.714557e-01    1.510464e+00
    8.820102e-01    4.322737e+01    9.255505e+00    7.916730e+07    1.641149e-08    6.397295e-11    1.603298e-08    2.867263e-09   -2.820000e+00    7.714557e-01    1.502454e+00
    8.874055e-01    4.554701e+01    9.173980e+00    7.895197e+07    1.641107e-08    6.211450e-11    1.602368e-08    2.866565e-09   -2.810000e+00    7.714557e-01    1.494452e+00
    8.928034e-01    4.794759e+01    9.092685e+00    7.873021e+07    1.641068e-08    6.031685e-11    1.601434e-08    2.865869e-09   -2.800000e+00    7.714557e-01    1.486459e+00
    8.982075e-01    5.042757e+01    9.011620e+00    7.850237e+07    1.641032e-08    5.857790e-11    1.600495e-08    2.865176e-09   -2.790000e+00    7.714557e-01    1.478476e+00
    9.036201e-01    5.298509e+01    8.930800e+00    7.826880e+07    1.640997e-08    5.689540e-11    1.599553e-08    2.864486e-09   -2.780000e+00    7.714557e-01    1.470502e+00
    9.090447e-01    5.561824e+01    8.850225e+00    7.802985e+07    1.640963e-08    5.526735e-11    1.598605e-08    2.863798e-09   -2.770000e+00    7.714557e-01    1.462538e+00
    9.144853e-01    5.832493e+01    8.769895e+00    7.778586e+07    1.640932e-08    5.369185e-11    1.597654e-08    2.863112e-09   -2.760000e+00    7.714557e-01    1.454582e+00
    9.199432e-01    6.110286e+01    8.689825e+00    7.753709e+07    1.640902e-08    5.216695e-11    1.596698e-08    2.862428e-09   -2.750000e+00    7.714557e-01    1.446636e+00
    9.254217e-01    6.394974e+01    8.610015e+00    7.728383e+07    1.640873e-08    5.069085e-11    1.595738e-08    2.861747e-09   -2.740000e+00    7.714557e-01    1.438699e+00
    9.309241e-01    6.686321e+01    8.530470e+00    7.702637e+07    1.640847e-08    4.926183e-11    1.594774e-08    2.861067e-09   -2.730000e+00    7.714557e-01    1.430770e+00
    9.364527e-01    6.984084e+01    8.451190e+00    7.676489e+07    1.640821e-08    4.787819e-11    1.593806e-08    2.860390e-09   -2.720000e+00    7.714557e-01    1.422851e+00
    9.420092e-01    7.288020e+01    8.372190e+00    7.649971e+07    1.640796e-08    4.653832e-11    1.592833e-08    2.859714e-09   -2.710000e+00    7.714557e-01    1.414942e+00
    9.475979e-01    7.597889e+01    8.293460e+00    7.623102e+07    1.640772e-08    4.524068e-11    1.591857e-08    2.859040e-09   -2.700000e+00    7.714557e-01    1.407041e+00
    9.532204e-01    7.913454e+01    8.215010e+00    7.595901e+07    1.640750e-08    4.398378e-11    1.590877e-08    2.858367e-09   -2.690000e+00    7.714557e-01    1.399149e+00
    9.588778e-01    8.234476e+01    8.136845e+00    7.568381e+07    1.640728e-08    4.276618e-11    1.589892e-08    2.857696e-09   -2.680000e+00    7.714557e-01    1.391266e+00
    9.645730e-01    8.560736e+01    8.058970e+00    7.540567e+07    1.640706e-08    4.158650e-11    1.588904e-08    2.857026e-09   -2.670000e+00    7.714557e-01    1.383393e+00
    9.703090e-01    8.892013e+01    7.981380e+00    7.512472e+07    1.640686e-08    4.044342e-11    1.587911e-08    2.856358e-09   -2.660000e+00    7.714557e-01    1.375528e+00
    9.760870e-01    9.228089e+01    7.904080e+00    7.484109e+07    1.640665e-08    3.933566e-11    1.586916e-08    2.855691e-09   -2.650000e+00    7.714557e-01    1.367672e+00
    9.819090e-01    9.568784e+01    7.827080e+00    7.455495e+07    1.640645e-08    3.826200e-11    1.585915e-08    2.855025e-09   -2.640000e+00    7.714557e-01    1.359826e+00
    9.877780e-01    9.913897e+01    7.750370e+00    7.426642e+07    1.640626e-08    3.722125e-11    1.584912e-08    2.854360e-09   -2.630000e+00    7.714557e-01    1.351988e+00
    9.936936e-01    1.026324e+02    7.673965e+00    7.397552e+07    1.640607e-08    3.621228e-11    1.583904e-08    2.853695e-09   -2.620000e+00    7.714557e-01    1.344159e+00
    9.996598e-01    1.061667e+02    7.597860e+00    7.368248e+07    1.640588e-08    3.523399e-11    1.582893e-08    2.853032e-09   -2.610000e+00    7.714557e-01    1.336339e+00
    1.005677e+00    1.097403e+02    7.522060e+00    7.338735e+07    1.640569e-08    3.428534e-11    1.581877e-08    2.852369e-09   -2.600000e+00    7.714557e-01    1.328528e+00
    1.011749e+00    1.133518e+02    7.446565e+00    7.309027e+07    1.640549e-08    3.336531e-11    1.580858e-08    2.851707e-09   -2.590000e+00    7.714557e-01    1.320726e+00
    1.017875e+00    1.169997e+02    7.371380e+00    7.279122e+07    1.640530e-08    3.247292e-11    1.579835e-08    2.851045e-09   -2.580000e+00    7.714557e-01    1.312933e+00
    1.024057e+00    1.206831e+02    7.296505e+00    7.249035e+07    1.640511e-08    3.160724e-11    1.578808e-08    2.850384e-09   -2.570000e+00    7.714557e-01    1.305149e+00
    1.030299e+00    1.244010e+02    7.221940e+00    7.218774e+07    1.640491e-08    3.076736e-11    1.577778e-08    2.849723e-09   -2.560000e+00    7.714557e-01    1.297373e+00
    1.036601e+00    1.281522e+02    7.147690e+00    7.188340e+07    1.640472e-08    2.995243e-11    1.576744e-08    2.849062e-09   -2.550000e+00    7.714557e-01    1.289606e+00
    1.042964e+00    1.319361e+02    7.073755e+00    7.157741e+07    1.640452e-08    2.916159e-11    1.575706e-08    2.848401e-09   -2.540000e+00    7.714557e-01    1.281848e+00
    1.049390e+00    1.357519e+02    7.000135e+00    7.126985e+07    1.640431e-08    2.839404e-11    1.574664e-08    2.847740e-09   -2.530000e+00    7.714557e-01    1.274099e+00
    1.055882e+00    1.395992e+02    6.926840e+00    7.096078e+07    1.640409e-08    2.764901e-11    1.573618e-08    2.847078e-09   -2.520000e+00    7.714557e-01    1.266358e+00
    1.062440e+00    1.434773e+02    6.853860e+00    7.065019e+07    1.640388e-08    2.692574e-11    1.572569e-08    2.846417e-09   -2.510000e+00    7.714557e-01    1.258627e+00
    1.069067e+00    1.473858e+02    6.781200e+00    7.033816e+07    1.640365e-08    2.622353e-11    1.571515e-08    2.845756e-09   -2.500000e+00    7.714557e-01    1.250904e+00
    1.075762e+00    1.513245e+02    6.708870e+00    7.002475e+07    1.640341e-08    2.554167e-11    1.570458e-08    2.845093e-09   -2.490000e+00    7.714557e-01    1.243189e+00
    1.082531e+00    1.552933e+02    6.636860e+00    6.971000e+07    1.640318e-08    2.487949e-11    1.569397e-08    2.844431e-09   -2.480000e+00    7.714557e-01    1.235484e+00
    1.089372e+00    1.592918e+02    6.565175e+00    6.939388e+07    1.640293e-08    2.423635e-11    1.568332e-08    2.843767e-09   -2.470000e+00    7.714557e-01    1.227787e+00
    1.096287e+00    1.633202e+02    6.493820e+00    6.907648e+07    1.640267e-08    2.361164e-11    1.567263e-08    2.843103e-09   -2.460000e+00    7.714557e-01    1.220099e+00
    1.103278e+00    1.673784e+02    6.422795e+00    6.875778e+07    1.640240e-08    2.300475e-11    1.566190e-08    2.842437e-09   -2.450000e+00    7.714557e-01    1.212419e+00
    1.110348e+00    1.714665e+02    6.352100e+00    6.843787e+07    1.640212e-08    2.241510e-11    1.565113e-08    2.841770e-09   -2.440000e+00    7.714557e-01    1.204748e+00
    1.117498e+00    1.755849e+02    6.281735e+00    6.811680e+07    1.640183e-08    2.184214e-11    1.564032e-08    2.841103e-09   -2.430000e+00    7.714557e-01    1.197085e+00
    1.124728e+00    1.797335e+02    6.211705e+00    6.779448e+07    1.640153e-08    2.128534e-11    1.562947e-08    2.840435e-09   -2.420000e+00    7.714557e-01    1.189431e+00
    1.132042e+00    1.839127e+02    6.142005e+00    6.747101e+07    1.640120e-08    2.074418e-11    1.561858e-08    2.839765e-09   -2.410000e+00    7.714557e-01    1.181786e+00
    1.139441e+00    1.881231e+02    6.072645e+00    6.714639e+07    1.640088e-08    2.021815e-11    1.560765e-08    2.839093e-09   -2.400000e+00    7.714557e-01    1.174149e+00
    1.146926e+00    1.923647e+02    6.003620e+00    6.682062e+07    1.640053e-08    1.970678e-11    1.559668e-08    2.838420e-09   -2.390000e+00    7.714557e-01    1.166521e+00
    1.154500e+00    1.966383e+02    5.934930e+00    6.649379e+07    1.640018e-08    1.920960e-11    1.558567e-08    2.837746e-09   -2.380000e+00    7.714557e-01    1.158901e+00
    1.162164e+00    2.009443e+02    5.866580e+00    6.616586e+07    1.639980e-08    1.872618e-11    1.557461e-08    2.837069e-09   -2.370000e+00    7.714557e-01    1.151290e+00
    1.169920e+00    2.052832e+02    5.798570e+00    6.583684e+07    1.639942e-08    1.825607e-11    1.556352e-08    2.836391e-09   -2.360000e+00    7.714557e-01    1.143687e+00
    1.177769e+00    2.096555e+02    5.730905e+00    6.550674e+07    1.639901e-08    1.779885e-11    1.555238e-08    2.835711e-09   -2.350000e+00    7.714557e-01    1.136093e+00
    1.185716e+00    2.140622e+02    5.663580e+00    6.517562e+07    1.639859e-08    1.735413e-11    1.554120e-08    2.835028e-09   -2.340000e+00    7.714557e-01    1.128507e+00
    1.193760e+00    2.185036e+02    5.596595e+00    6.484345e+07    1.639815e-08    1.692152e-11    1.552997e-08    2.834344e-09   -2.330000e+00    7.714557e-01    1.120930e+00
    1.201902e+00    2.229805e+02    5.529960e+00    6.451020e+07    1.639770e-08    1.650065e-11    1.551871e-08    2.833657e-09   -2.320000e+00    7.714557e-01    1.113361e+00
    1.210147e+00    2.274938e+02    5.463670e+00    6.417601e+07    1.639722e-08    1.609115e-11    1.550740e-08    2.832967e-09   -2.310000e+00    7.714557e-01    1.105800e+00
    1.218497e+00    2.320442e+02    5.397725e+00    6.384079e+07    1.639672e-08    1.569267e-11    1.549604e-08    2.832276e-09   -2.300000e+00    7.714557e-01    1.098248e+00
    1.226953e+00    2.366325e+02    5.332125e+00    6.350456e+07    1.639620e-08    1.530488e-11    1.548463e-08    2.831581e-09   -2.290000e+00    7.714557e-01    1.090704e+00
    1.235516e+00    2.412596e+02    5.266880e+00    6.316737e+07    1.639567e-08    1.492745e-11    1.547319e-08    2.830884e-09   -2.280000e+00    7.714557e-01    1.083168e+00
    1.244191e+00    2.459262e+02    5.201980e+00    6.282918e+07    1.639511e-08    1.456007e-11    1.546169e-08    2.830184e-09   -2.270000e+00    7.714557e-01    1.075641e+00
    1.252977e+00    2.506335e+02    5.137435e+00    6.249001e+07    1.639454e-08    1.420243e-11    1.545016e-08    2.829481e-09   -2.260000e+00    7.714557e-01    1.068122e+00
    1.261880e+00    2.553823e+02    5.073240e+00    6.214991e+07    1.639393e-08    1.385424e-11    1.543857e-08    2.828774e-09   -2.250000e+00    7.714557e-01    1.060611e+00
    1.270901e+00    2.601736e+02    5.009395e+00    6.180884e+07    1.639331e-08    1.351522e-11    1.542693e-08    2.828065e-09   -2.240000e+00    7.714557e-01    1.053109e+00
    1.280041e+00    2.650084e+02    4.945909e+00    6.146680e+07    1.639266e-08    1.318509e-11    1.541525e-08    2.827352e-09   -2.230000e+00    7.714557e-01    1.045615e+00
    1.289303e+00    2.698876e+02    4.882778e+00    6.112383e+07    1.639199e-08    1.286359e-11    1.540351e-08    2.826636e-09   -2.220000e+00    7.714557e-01    1.038129e+00
