# GF180MCU-D pfet_03v3 gm/ID Processed Lookup Table
# Corner: typical
# Temperature: 25C
# W = 2.0 um
# L = 5.5 um (5500 nm)
# Columns: gm/id [1/V]  gm/gds [V/V]  id/W [A/m]  ft [Hz]  Cgg/W [F/m]  Cgd/W [F/m]  Cgs/W [F/m]  Cdb/W [F/m]  vgs [V]  vth [V]  vdsat [V]
# vdsat = BSIM saturation voltage (|VDS|_sat, positive); use for headroom / saturation / cascode-bias calculations
#           gm/id          gm/gds            id/W              ft           Cgg/W           Cgd/W           Cgs/W           Cdb/W             vgs             vth           vdsat
    6.126005e-01    4.199101e+00    1.202728e+01    6.465019e+07    1.813823e-08    3.315458e-10    1.802692e-08    3.197476e-09   -3.300000e+00    7.711399e-01    1.894837e+00
    6.177833e-01    4.333118e+00    1.195360e+01    6.481574e+07    1.813321e-08    3.203695e-10    1.802179e-08    3.196608e-09   -3.290000e+00    7.711399e-01    1.886375e+00
    6.230293e-01    4.474652e+00    1.187959e+01    6.497868e+07    1.812838e-08    3.095800e-10    1.801645e-08    3.195734e-09   -3.280000e+00    7.711399e-01    1.877924e+00
    6.283246e-01    4.624275e+00    1.180549e+01    6.513884e+07    1.812375e-08    2.991655e-10    1.801091e-08    3.194856e-09   -3.270000e+00    7.711399e-01    1.869483e+00
    6.336727e-01    4.782604e+00    1.173123e+01    6.529605e+07    1.811931e-08    2.891142e-10    1.800517e-08    3.193975e-09   -3.260000e+00    7.711399e-01    1.861053e+00
    6.390729e-01    4.950319e+00    1.165681e+01    6.545017e+07    1.811506e-08    2.794144e-10    1.799924e-08    3.193090e-09   -3.250000e+00    7.711399e-01    1.852632e+00
    6.445243e-01    5.128152e+00    1.158224e+01    6.560095e+07    1.811098e-08    2.700548e-10    1.799312e-08    3.192204e-09   -3.240000e+00    7.711399e-01    1.844222e+00
    6.500244e-01    5.316894e+00    1.150752e+01    6.574811e+07    1.810706e-08    2.610242e-10    1.798683e-08    3.191316e-09   -3.230000e+00    7.711399e-01    1.835822e+00
    6.555730e-01    5.517428e+00    1.143264e+01    6.589151e+07    1.810332e-08    2.523119e-10    1.798037e-08    3.190426e-09   -3.220000e+00    7.711399e-01    1.827432e+00
    6.611679e-01    5.730692e+00    1.135762e+01    6.603084e+07    1.809974e-08    2.439069e-10    1.797375e-08    3.189536e-09   -3.210000e+00    7.711399e-01    1.819052e+00
    6.668061e-01    5.957711e+00    1.128246e+01    6.616578e+07    1.809630e-08    2.357992e-10    1.796696e-08    3.188645e-09   -3.200000e+00    7.711399e-01    1.810682e+00
    6.724869e-01    6.199613e+00    1.120716e+01    6.629615e+07    1.809302e-08    2.279784e-10    1.796002e-08    3.187754e-09   -3.190000e+00    7.711399e-01    1.802322e+00
    6.782070e-01    6.457601e+00    1.113172e+01    6.642153e+07    1.808989e-08    2.204347e-10    1.795293e-08    3.186864e-09   -3.180000e+00    7.711399e-01    1.793972e+00
    6.839632e-01    6.732996e+00    1.105617e+01    6.654167e+07    1.808688e-08    2.131585e-10    1.794569e-08    3.185975e-09   -3.170000e+00    7.711399e-01    1.785633e+00
    6.897532e-01    7.027220e+00    1.098048e+01    6.665620e+07    1.808401e-08    2.061404e-10    1.793832e-08    3.185086e-09   -3.160000e+00    7.711399e-01    1.777303e+00
    6.955732e-01    7.341809e+00    1.090469e+01    6.676475e+07    1.808128e-08    1.993714e-10    1.793081e-08    3.184200e-09   -3.150000e+00    7.711399e-01    1.768983e+00
    7.014208e-01    7.678443e+00    1.082878e+01    6.686707e+07    1.807866e-08    1.928426e-10    1.792317e-08    3.183315e-09   -3.140000e+00    7.711399e-01    1.760673e+00
    7.072906e-01    8.038885e+00    1.075278e+01    6.696262e+07    1.807617e-08    1.865455e-10    1.791541e-08    3.182432e-09   -3.130000e+00    7.711399e-01    1.752373e+00
    7.131800e-01    8.425086e+00    1.067668e+01    6.705120e+07    1.807378e-08    1.804718e-10    1.790753e-08    3.181552e-09   -3.120000e+00    7.711399e-01    1.744083e+00
    7.190848e-01    8.839096e+00    1.060050e+01    6.713237e+07    1.807151e-08    1.746134e-10    1.789952e-08    3.180673e-09   -3.110000e+00    7.711399e-01    1.735803e+00
    7.250003e-01    9.283108e+00    1.052423e+01    6.720572e+07    1.806935e-08    1.689626e-10    1.789141e-08    3.179799e-09   -3.100000e+00    7.711399e-01    1.727533e+00
    7.309224e-01    9.759483e+00    1.044790e+01    6.727093e+07    1.806728e-08    1.635118e-10    1.788319e-08    3.178927e-09   -3.090000e+00    7.711399e-01    1.719273e+00
    7.368466e-01    1.027069e+01    1.037150e+01    6.732762e+07    1.806532e-08    1.582537e-10    1.787485e-08    3.178058e-09   -3.080000e+00    7.711399e-01    1.711022e+00
    7.427683e-01    1.081936e+01    1.029505e+01    6.737545e+07    1.806344e-08    1.531814e-10    1.786642e-08    3.177191e-09   -3.070000e+00    7.711399e-01    1.702782e+00
    7.486840e-01    1.140827e+01    1.021857e+01    6.741416e+07    1.806166e-08    1.482879e-10    1.785789e-08    3.176329e-09   -3.060000e+00    7.711399e-01    1.694551e+00
    7.545896e-01    1.204028e+01    1.014205e+01    6.744347e+07    1.805996e-08    1.435667e-10    1.784926e-08    3.175471e-09   -3.050000e+00    7.711399e-01    1.686330e+00
    7.604801e-01    1.271840e+01    1.006551e+01    6.746301e+07    1.805835e-08    1.390116e-10    1.784054e-08    3.174615e-09   -3.040000e+00    7.711399e-01    1.678118e+00
    7.663531e-01    1.344574e+01    9.988960e+00    6.747271e+07    1.805682e-08    1.346162e-10    1.783173e-08    3.173763e-09   -3.030000e+00    7.711399e-01    1.669917e+00
    7.722038e-01    1.422548e+01    9.912415e+00    6.747230e+07    1.805536e-08    1.303749e-10    1.782283e-08    3.172916e-09   -3.020000e+00    7.711399e-01    1.661725e+00
    7.780309e-01    1.506088e+01    9.835875e+00    6.746170e+07    1.805397e-08    1.262818e-10    1.781385e-08    3.172072e-09   -3.010000e+00    7.711399e-01    1.653543e+00
    7.838302e-01    1.595523e+01    9.759365e+00    6.744078e+07    1.805266e-08    1.223314e-10    1.780478e-08    3.171232e-09   -3.000000e+00    7.711399e-01    1.645370e+00
    7.896004e-01    1.691181e+01    9.682885e+00    6.740952e+07    1.805141e-08    1.185185e-10    1.779564e-08    3.170396e-09   -2.990000e+00    7.711399e-01    1.637207e+00
    7.953397e-01    1.793395e+01    9.606455e+00    6.736797e+07    1.805022e-08    1.148379e-10    1.778642e-08    3.169563e-09   -2.980000e+00    7.711399e-01    1.629054e+00
    8.010464e-01    1.902485e+01    9.530085e+00    6.731613e+07    1.804910e-08    1.112847e-10    1.777712e-08    3.168735e-09   -2.970000e+00    7.711399e-01    1.620910e+00
    8.067207e-01    2.018768e+01    9.453780e+00    6.725414e+07    1.804803e-08    1.078543e-10    1.776774e-08    3.167911e-09   -2.960000e+00    7.711399e-01    1.612777e+00
    8.123621e-01    2.142548e+01    9.377555e+00    6.718215e+07    1.804702e-08    1.045421e-10    1.775831e-08    3.167090e-09   -2.950000e+00    7.711399e-01    1.604652e+00
    8.179709e-01    2.274114e+01    9.301425e+00    6.710038e+07    1.804607e-08    1.013436e-10    1.774879e-08    3.166273e-09   -2.940000e+00    7.711399e-01    1.596537e+00
    8.235474e-01    2.413736e+01    9.225395e+00    6.700899e+07    1.804516e-08    9.825465e-11    1.773922e-08    3.165460e-09   -2.930000e+00    7.711399e-01    1.588432e+00
    8.290946e-01    2.561664e+01    9.149475e+00    6.690837e+07    1.804430e-08    9.527120e-11    1.772958e-08    3.164651e-09   -2.920000e+00    7.711399e-01    1.580336e+00
    8.346118e-01    2.718119e+01    9.073680e+00    6.679865e+07    1.804349e-08    9.238930e-11    1.771987e-08    3.163846e-09   -2.910000e+00    7.711399e-01    1.572250e+00
    8.401026e-01    2.883303e+01    8.998020e+00    6.668030e+07    1.804272e-08    8.960525e-11    1.771010e-08    3.163044e-09   -2.900000e+00    7.711399e-01    1.564173e+00
    8.455685e-01    3.057379e+01    8.922500e+00    6.655354e+07    1.804199e-08    8.691535e-11    1.770027e-08    3.162246e-09   -2.890000e+00    7.711399e-01    1.556106e+00
    8.510133e-01    3.240486e+01    8.847130e+00    6.641882e+07    1.804130e-08    8.431620e-11    1.769038e-08    3.161452e-09   -2.880000e+00    7.711399e-01    1.548048e+00
    8.564385e-01    3.432725e+01    8.771920e+00    6.627640e+07    1.804064e-08    8.180440e-11    1.768043e-08    3.160661e-09   -2.870000e+00    7.711399e-01    1.539999e+00
    8.618476e-01    3.634168e+01    8.696880e+00    6.612670e+07    1.804003e-08    7.937680e-11    1.767043e-08    3.159874e-09   -2.860000e+00    7.711399e-01    1.531960e+00
    8.672439e-01    3.844852e+01    8.622015e+00    6.597008e+07    1.803944e-08    7.703020e-11    1.766037e-08    3.159089e-09   -2.850000e+00    7.711399e-01    1.523931e+00
    8.726305e-01    4.064779e+01    8.547335e+00    6.580688e+07    1.803890e-08    7.476170e-11    1.765025e-08    3.158309e-09   -2.840000e+00    7.711399e-01    1.515910e+00
    8.780109e-01    4.293921e+01    8.472845e+00    6.563748e+07    1.803837e-08    7.256840e-11    1.764009e-08    3.157532e-09   -2.830000e+00    7.711399e-01    1.507899e+00
    8.833882e-01    4.532214e+01    8.398550e+00    6.546219e+07    1.803788e-08    7.044760e-11    1.762986e-08    3.156758e-09   -2.820000e+00    7.711399e-01    1.499898e+00
    8.887646e-01    4.779565e+01    8.324465e+00    6.528132e+07    1.803742e-08    6.839660e-11    1.761959e-08    3.155986e-09   -2.810000e+00    7.711399e-01    1.491905e+00
    8.941457e-01    5.035863e+01    8.250585e+00    6.509527e+07    1.803697e-08    6.641290e-11    1.760927e-08    3.155218e-09   -2.800000e+00    7.711399e-01    1.483922e+00
    8.995331e-01    5.300956e+01    8.176920e+00    6.490429e+07    1.803656e-08    6.449400e-11    1.759890e-08    3.154453e-09   -2.790000e+00    7.711399e-01    1.475949e+00
    9.049297e-01    5.574679e+01    8.103480e+00    6.470869e+07    1.803615e-08    6.263760e-11    1.758848e-08    3.153689e-09   -2.780000e+00    7.711399e-01    1.467984e+00
    9.103398e-01    5.856845e+01    8.030260e+00    6.450870e+07    1.803578e-08    6.084145e-11    1.757800e-08    3.152930e-09   -2.770000e+00    7.711399e-01    1.460029e+00
    9.157651e-01    6.147246e+01    7.957275e+00    6.430463e+07    1.803543e-08    5.910330e-11    1.756749e-08    3.152172e-09   -2.760000e+00    7.711399e-01    1.452083e+00
    9.212090e-01    6.445663e+01    7.884525e+00    6.409669e+07    1.803508e-08    5.742115e-11    1.755693e-08    3.151417e-09   -2.750000e+00    7.711399e-01    1.444146e+00
    9.266751e-01    6.751866e+01    7.812010e+00    6.388517e+07    1.803476e-08    5.579295e-11    1.754631e-08    3.150664e-09   -2.740000e+00    7.711399e-01    1.436219e+00
    9.321650e-01    7.065613e+01    7.739740e+00    6.367023e+07    1.803445e-08    5.421675e-11    1.753566e-08    3.149914e-09   -2.730000e+00    7.711399e-01    1.428300e+00
    9.376822e-01    7.386661e+01    7.667715e+00    6.345210e+07    1.803416e-08    5.269075e-11    1.752495e-08    3.149166e-09   -2.720000e+00    7.711399e-01    1.420391e+00
    9.432276e-01    7.714755e+01    7.595945e+00    6.323092e+07    1.803387e-08    5.121310e-11    1.751420e-08    3.148419e-09   -2.710000e+00    7.711399e-01    1.412491e+00
    9.488054e-01    8.049646e+01    7.524425e+00    6.300691e+07    1.803360e-08    4.978215e-11    1.750341e-08    3.147675e-09   -2.700000e+00    7.711399e-01    1.404599e+00
    9.544173e-01    8.391085e+01    7.453160e+00    6.278020e+07    1.803334e-08    4.839621e-11    1.749258e-08    3.146932e-09   -2.690000e+00    7.711399e-01    1.396717e+00
    9.600659e-01    8.738833e+01    7.382155e+00    6.255100e+07    1.803309e-08    4.705369e-11    1.748170e-08    3.146191e-09   -2.680000e+00    7.711399e-01    1.388845e+00
    9.657515e-01    9.092625e+01    7.311415e+00    6.231934e+07    1.803284e-08    4.575307e-11    1.747078e-08    3.145452e-09   -2.670000e+00    7.711399e-01    1.380981e+00
    9.714788e-01    9.452254e+01    7.240935e+00    6.208544e+07    1.803260e-08    4.449288e-11    1.745982e-08    3.144714e-09   -2.660000e+00    7.711399e-01    1.373126e+00
    9.772485e-01    9.817473e+01    7.170725e+00    6.184939e+07    1.803237e-08    4.327171e-11    1.744881e-08    3.143977e-09   -2.650000e+00    7.711399e-01    1.365280e+00
    9.830624e-01    1.018808e+02    7.100785e+00    6.161129e+07    1.803214e-08    4.208821e-11    1.743776e-08    3.143242e-09   -2.640000e+00    7.711399e-01    1.357443e+00
    9.889235e-01    1.056386e+02    7.031115e+00    6.137128e+07    1.803191e-08    4.094107e-11    1.742666e-08    3.142508e-09   -2.630000e+00    7.711399e-01    1.349615e+00
    9.948325e-01    1.094461e+02    6.961720e+00    6.112939e+07    1.803170e-08    3.982901e-11    1.741553e-08    3.141774e-09   -2.620000e+00    7.711399e-01    1.341796e+00
    1.000791e+00    1.133016e+02    6.892605e+00    6.088573e+07    1.803148e-08    3.875086e-11    1.740435e-08    3.141042e-09   -2.610000e+00    7.711399e-01    1.333987e+00
    1.006802e+00    1.172032e+02    6.823760e+00    6.064039e+07    1.803126e-08    3.770542e-11    1.739313e-08    3.140310e-09   -2.600000e+00    7.711399e-01    1.326186e+00
    1.012866e+00    1.211493e+02    6.755200e+00    6.039345e+07    1.803103e-08    3.669159e-11    1.738186e-08    3.139579e-09   -2.590000e+00    7.711399e-01    1.318393e+00
    1.018986e+00    1.251386e+02    6.686920e+00    6.014496e+07    1.803082e-08    3.570828e-11    1.737056e-08    3.138848e-09   -2.580000e+00    7.711399e-01    1.310610e+00
    1.025163e+00    1.291696e+02    6.618925e+00    5.989497e+07    1.803060e-08    3.475446e-11    1.735922e-08    3.138118e-09   -2.570000e+00    7.711399e-01    1.302836e+00
    1.031399e+00    1.332412e+02    6.551210e+00    5.964357e+07    1.803037e-08    3.382913e-11    1.734783e-08    3.137389e-09   -2.560000e+00    7.711399e-01    1.295070e+00
    1.037695e+00    1.373522e+02    6.483785e+00    5.939081e+07    1.803014e-08    3.293133e-11    1.733640e-08    3.136659e-09   -2.550000e+00    7.711399e-01    1.287314e+00
    1.044053e+00    1.415015e+02    6.416645e+00    5.913668e+07    1.802991e-08    3.206012e-11    1.732493e-08    3.135929e-09   -2.540000e+00    7.711399e-01    1.279566e+00
    1.050473e+00    1.456883e+02    6.349800e+00    5.888130e+07    1.802967e-08    3.121463e-11    1.731341e-08    3.135199e-09   -2.530000e+00    7.711399e-01    1.271827e+00
    1.056960e+00    1.499119e+02    6.283240e+00    5.862469e+07    1.802942e-08    3.039399e-11    1.730186e-08    3.134470e-09   -2.520000e+00    7.711399e-01    1.264097e+00
    1.063514e+00    1.541717e+02    6.216975e+00    5.836690e+07    1.802918e-08    2.959737e-11    1.729026e-08    3.133740e-09   -2.510000e+00    7.711399e-01    1.256375e+00
    1.070135e+00    1.584669e+02    6.151005e+00    5.810788e+07    1.802892e-08    2.882398e-11    1.727862e-08    3.133009e-09   -2.500000e+00    7.711399e-01    1.248663e+00
    1.076827e+00    1.627974e+02    6.085330e+00    5.784778e+07    1.802866e-08    2.807305e-11    1.726694e-08    3.132278e-09   -2.490000e+00    7.711399e-01    1.240959e+00
    1.083590e+00    1.671626e+02    6.019950e+00    5.758656e+07    1.802838e-08    2.734384e-11    1.725521e-08    3.131546e-09   -2.480000e+00    7.711399e-01    1.233263e+00
    1.090426e+00    1.715624e+02    5.954865e+00    5.732426e+07    1.802809e-08    2.663565e-11    1.724344e-08    3.130814e-09   -2.470000e+00    7.711399e-01    1.225577e+00
    1.097336e+00    1.759965e+02    5.890085e+00    5.706092e+07    1.802780e-08    2.594777e-11    1.723163e-08    3.130080e-09   -2.460000e+00    7.711399e-01    1.217899e+00
    1.104324e+00    1.804649e+02    5.825600e+00    5.679655e+07    1.802749e-08    2.527956e-11    1.721977e-08    3.129345e-09   -2.450000e+00    7.711399e-01    1.210230e+00
    1.111390e+00    1.849677e+02    5.761415e+00    5.653120e+07    1.802718e-08    2.463037e-11    1.720788e-08    3.128610e-09   -2.440000e+00    7.711399e-01    1.202569e+00
    1.118535e+00    1.895049e+02    5.697535e+00    5.626485e+07    1.802685e-08    2.399959e-11    1.719593e-08    3.127874e-09   -2.430000e+00    7.711399e-01    1.194917e+00
    1.125761e+00    1.940765e+02    5.633960e+00    5.599753e+07    1.802650e-08    2.338662e-11    1.718394e-08    3.127136e-09   -2.420000e+00    7.711399e-01    1.187274e+00
    1.133072e+00    1.986830e+02    5.570685e+00    5.572925e+07    1.802615e-08    2.279091e-11    1.717191e-08    3.126396e-09   -2.410000e+00    7.711399e-01    1.179639e+00
    1.140466e+00    2.033247e+02    5.507720e+00    5.546010e+07    1.802577e-08    2.221189e-11    1.715984e-08    3.125655e-09   -2.400000e+00    7.711399e-01    1.172013e+00
    1.147948e+00    2.080017e+02    5.445060e+00    5.519002e+07    1.802538e-08    2.164903e-11    1.714771e-08    3.124912e-09   -2.390000e+00    7.711399e-01    1.164396e+00
    1.155518e+00    2.127144e+02    5.382705e+00    5.491898e+07    1.802498e-08    2.110182e-11    1.713555e-08    3.124167e-09   -2.380000e+00    7.711399e-01    1.156787e+00
    1.163177e+00    2.174636e+02    5.320665e+00    5.464711e+07    1.802456e-08    2.056978e-11    1.712333e-08    3.123420e-09   -2.370000e+00    7.711399e-01    1.149186e+00
    1.170929e+00    2.222496e+02    5.258930e+00    5.437435e+07    1.802412e-08    2.005241e-11    1.711107e-08    3.122671e-09   -2.360000e+00    7.711399e-01    1.141594e+00
    1.178776e+00    2.270731e+02    5.197505e+00    5.410075e+07    1.802367e-08    1.954927e-11    1.709876e-08    3.121921e-09   -2.350000e+00    7.711399e-01    1.134010e+00
    1.186719e+00    2.319347e+02    5.136395e+00    5.382631e+07    1.802319e-08    1.905990e-11    1.708641e-08    3.121167e-09   -2.340000e+00    7.711399e-01    1.126435e+00
    1.194757e+00    2.368349e+02    5.075600e+00    5.355099e+07    1.802270e-08    1.858388e-11    1.707400e-08    3.120412e-09   -2.330000e+00    7.711399e-01    1.118869e+00
    1.202898e+00    2.417746e+02    5.015115e+00    5.327487e+07    1.802218e-08    1.812080e-11    1.706156e-08    3.119653e-09   -2.320000e+00    7.711399e-01    1.111311e+00
    1.211140e+00    2.467545e+02    4.954945e+00    5.299789e+07    1.802165e-08    1.767025e-11    1.704906e-08    3.118892e-09   -2.310000e+00    7.711399e-01    1.103761e+00
    1.219485e+00    2.517753e+02    4.895092e+00    5.272011e+07    1.802109e-08    1.723185e-11    1.703650e-08    3.118129e-09   -2.300000e+00    7.711399e-01    1.096220e+00
    1.227936e+00    2.568380e+02    4.835555e+00    5.244151e+07    1.802052e-08    1.680523e-11    1.702391e-08    3.117362e-09   -2.290000e+00    7.711399e-01    1.088687e+00
    1.236497e+00    2.619434e+02    4.776337e+00    5.216213e+07    1.801992e-08    1.639003e-11    1.701126e-08    3.116592e-09   -2.280000e+00    7.711399e-01    1.081162e+00
    1.245168e+00    2.670925e+02    4.717437e+00    5.188196e+07    1.801929e-08    1.598590e-11    1.699856e-08    3.115819e-09   -2.270000e+00    7.711399e-01    1.073646e+00
    1.253951e+00    2.722861e+02    4.658857e+00    5.160101e+07    1.801864e-08    1.559252e-11    1.698581e-08    3.115043e-09   -2.260000e+00    7.711399e-01    1.066138e+00
    1.262850e+00    2.775253e+02    4.600598e+00    5.131927e+07    1.801796e-08    1.520954e-11    1.697300e-08    3.114264e-09   -2.250000e+00    7.711399e-01    1.058639e+00
    1.271866e+00    2.828110e+02    4.542661e+00    5.103672e+07    1.801727e-08    1.483666e-11    1.696015e-08    3.113480e-09   -2.240000e+00    7.711399e-01    1.051148e+00
    1.281003e+00    2.881445e+02    4.485045e+00    5.075344e+07    1.801654e-08    1.447358e-11    1.694723e-08    3.112693e-09   -2.230000e+00    7.711399e-01    1.043665e+00
    1.290260e+00    2.935264e+02    4.427753e+00    5.046934e+07    1.801579e-08    1.412001e-11    1.693427e-08    3.111902e-09   -2.220000e+00    7.711399e-01    1.036190e+00
