# GF180MCU-D pfet_03v3 gm/ID Processed Lookup Table
# Corner: typical
# Temperature: 25C
# W = 2.0 um
# L = 2 um (2000 nm)
# Columns: gm/id [1/V]  gm/gds [V/V]  id/W [A/m]  ft [Hz]  Cgg/W [F/m]  Cgd/W [F/m]  Cgs/W [F/m]  Cdb/W [F/m]  vgs [V]  vth [V]  vdsat [V]
# vdsat = BSIM saturation voltage (|VDS|_sat, positive); use for headroom / saturation / cascode-bias calculations
#           gm/id          gm/gds            id/W              ft           Cgg/W           Cgd/W           Cgs/W           Cdb/W             vgs             vth           vdsat
    5.835425e-01    3.416373e+00    3.349190e+01    4.666922e+08    6.665025e-09    1.287260e-10    6.547705e-09    1.144979e-09   -3.300000e+00    7.765560e-01    1.937677e+00
    5.884604e-01    3.508470e+00    3.329646e+01    4.680100e+08    6.663160e-09    1.244583e-10    6.546215e-09    1.144680e-09   -3.290000e+00    7.765560e-01    1.929146e+00
    5.934441e-01    3.604974e+00    3.310003e+01    4.693153e+08    6.661370e-09    1.203346e-10    6.544650e-09    1.144381e-09   -3.280000e+00    7.765560e-01    1.920625e+00
    5.984804e-01    3.706184e+00    3.290335e+01    4.706078e+08    6.659645e-09    1.163507e-10    6.543005e-09    1.144078e-09   -3.270000e+00    7.765560e-01    1.912112e+00
    6.035741e-01    3.812411e+00    3.270619e+01    4.718860e+08    6.657995e-09    1.125023e-10    6.541290e-09    1.143774e-09   -3.260000e+00    7.765560e-01    1.903610e+00
    6.087245e-01    3.923987e+00    3.250854e+01    4.731494e+08    6.656410e-09    1.087855e-10    6.539500e-09    1.143469e-09   -3.250000e+00    7.765560e-01    1.895116e+00
    6.139318e-01    4.041287e+00    3.231042e+01    4.743970e+08    6.654890e-09    1.051960e-10    6.537640e-09    1.143162e-09   -3.240000e+00    7.765560e-01    1.886632e+00
    6.191956e-01    4.164697e+00    3.211181e+01    4.756278e+08    6.653430e-09    1.017298e-10    6.535710e-09    1.142855e-09   -3.230000e+00    7.765560e-01    1.878158e+00
    6.245154e-01    4.294640e+00    3.191275e+01    4.768402e+08    6.652035e-09    9.838300e-11    6.533720e-09    1.142546e-09   -3.220000e+00    7.765560e-01    1.869692e+00
    6.298906e-01    4.431575e+00    3.171322e+01    4.780333e+08    6.650700e-09    9.515190e-11    6.531665e-09    1.142236e-09   -3.210000e+00    7.765560e-01    1.861237e+00
    6.353201e-01    4.575990e+00    3.151323e+01    4.792060e+08    6.649415e-09    9.203255e-11    6.529545e-09    1.141926e-09   -3.200000e+00    7.765560e-01    1.852790e+00
    6.408033e-01    4.728415e+00    3.131280e+01    4.803561e+08    6.648190e-09    8.902140e-11    6.527370e-09    1.141616e-09   -3.190000e+00    7.765560e-01    1.844353e+00
    6.463390e-01    4.889419e+00    3.111192e+01    4.814824e+08    6.647020e-09    8.611485e-11    6.525135e-09    1.141306e-09   -3.180000e+00    7.765560e-01    1.835925e+00
    6.519257e-01    5.059611e+00    3.091062e+01    4.825836e+08    6.645895e-09    8.330930e-11    6.522845e-09    1.140995e-09   -3.170000e+00    7.765560e-01    1.827506e+00
    6.575618e-01    5.239644e+00    3.070890e+01    4.836569e+08    6.644825e-09    8.060140e-11    6.520505e-09    1.140685e-09   -3.160000e+00    7.765560e-01    1.819096e+00
    6.632457e-01    5.430223e+00    3.050677e+01    4.847013e+08    6.643800e-09    7.798780e-11    6.518110e-09    1.140375e-09   -3.150000e+00    7.765560e-01    1.810696e+00
    6.689750e-01    5.632095e+00    3.030424e+01    4.857139e+08    6.642825e-09    7.546530e-11    6.515665e-09    1.140065e-09   -3.140000e+00    7.765560e-01    1.802305e+00
    6.747478e-01    5.846060e+00    3.010132e+01    4.866933e+08    6.641890e-09    7.303070e-11    6.513175e-09    1.139755e-09   -3.130000e+00    7.765560e-01    1.793923e+00
    6.805612e-01    6.072970e+00    2.989803e+01    4.876366e+08    6.641000e-09    7.068100e-11    6.510635e-09    1.139446e-09   -3.120000e+00    7.765560e-01    1.785550e+00
    6.864128e-01    6.313728e+00    2.969437e+01    4.885418e+08    6.640150e-09    6.841320e-11    6.508050e-09    1.139138e-09   -3.110000e+00    7.765560e-01    1.777186e+00
    6.922993e-01    6.569288e+00    2.949038e+01    4.894057e+08    6.639345e-09    6.622440e-11    6.505425e-09    1.138831e-09   -3.100000e+00    7.765560e-01    1.768832e+00
    6.982175e-01    6.840657e+00    2.928606e+01    4.902269e+08    6.638570e-09    6.411185e-11    6.502755e-09    1.138523e-09   -3.090000e+00    7.765560e-01    1.760486e+00
    7.041639e-01    7.128890e+00    2.908143e+01    4.910018e+08    6.637835e-09    6.207285e-11    6.500045e-09    1.138218e-09   -3.080000e+00    7.765560e-01    1.752150e+00
    7.101352e-01    7.435091e+00    2.887650e+01    4.917278e+08    6.637140e-09    6.010470e-11    6.497295e-09    1.137913e-09   -3.070000e+00    7.765560e-01    1.743822e+00
    7.161272e-01    7.760402e+00    2.867131e+01    4.924025e+08    6.636475e-09    5.820500e-11    6.494505e-09    1.137609e-09   -3.060000e+00    7.765560e-01    1.735504e+00
    7.221359e-01    8.106002e+00    2.846586e+01    4.930233e+08    6.635840e-09    5.637115e-11    6.491680e-09    1.137306e-09   -3.050000e+00    7.765560e-01    1.727195e+00
    7.281573e-01    8.473100e+00    2.826019e+01    4.935871e+08    6.635240e-09    5.460085e-11    6.488820e-09    1.137005e-09   -3.040000e+00    7.765560e-01    1.718894e+00
    7.341875e-01    8.862926e+00    2.805431e+01    4.940915e+08    6.634670e-09    5.289185e-11    6.485925e-09    1.136705e-09   -3.030000e+00    7.765560e-01    1.710603e+00
    7.402220e-01    9.276713e+00    2.784826e+01    4.945339e+08    6.634130e-09    5.124190e-11    6.482995e-09    1.136405e-09   -3.020000e+00    7.765560e-01    1.702320e+00
    7.462570e-01    9.715696e+00    2.764204e+01    4.949124e+08    6.633615e-09    4.964880e-11    6.480030e-09    1.136107e-09   -3.010000e+00    7.765560e-01    1.694047e+00
    7.522883e-01    1.018109e+01    2.743570e+01    4.952247e+08    6.633125e-09    4.811056e-11    6.477040e-09    1.135810e-09   -3.000000e+00    7.765560e-01    1.685782e+00
    7.583120e-01    1.067407e+01    2.722926e+01    4.954683e+08    6.632665e-09    4.662517e-11    6.474015e-09    1.135514e-09   -2.990000e+00    7.765560e-01    1.677526e+00
    7.643250e-01    1.119576e+01    2.702275e+01    4.956424e+08    6.632225e-09    4.519071e-11    6.470960e-09    1.135221e-09   -2.980000e+00    7.765560e-01    1.669279e+00
    7.703236e-01    1.174723e+01    2.681619e+01    4.957449e+08    6.631810e-09    4.380530e-11    6.467880e-09    1.134927e-09   -2.970000e+00    7.765560e-01    1.661041e+00
    7.763049e-01    1.232943e+01    2.660962e+01    4.957749e+08    6.631420e-09    4.246718e-11    6.464765e-09    1.134636e-09   -2.960000e+00    7.765560e-01    1.652812e+00
    7.822665e-01    1.294324e+01    2.640306e+01    4.957317e+08    6.631050e-09    4.117462e-11    6.461630e-09    1.134346e-09   -2.950000e+00    7.765560e-01    1.644591e+00
    7.882062e-01    1.358938e+01    2.619654e+01    4.956151e+08    6.630700e-09    3.992595e-11    6.458465e-09    1.134057e-09   -2.940000e+00    7.765560e-01    1.636379e+00
    7.941224e-01    1.426847e+01    2.599010e+01    4.954248e+08    6.630370e-09    3.871957e-11    6.455275e-09    1.133769e-09   -2.930000e+00    7.765560e-01    1.628176e+00
    8.000137e-01    1.498093e+01    2.578376e+01    4.951612e+08    6.630055e-09    3.755394e-11    6.452060e-09    1.133483e-09   -2.920000e+00    7.765560e-01    1.619982e+00
    8.058795e-01    1.572704e+01    2.557756e+01    4.948249e+08    6.629760e-09    3.642758e-11    6.448820e-09    1.133197e-09   -2.910000e+00    7.765560e-01    1.611797e+00
    8.117194e-01    1.650691e+01    2.537153e+01    4.944164e+08    6.629485e-09    3.533905e-11    6.445555e-09    1.132914e-09   -2.900000e+00    7.765560e-01    1.603620e+00
    8.175338e-01    1.732044e+01    2.516568e+01    4.939373e+08    6.629225e-09    3.428698e-11    6.442270e-09    1.132631e-09   -2.890000e+00    7.765560e-01    1.595452e+00
    8.233237e-01    1.816740e+01    2.496006e+01    4.933891e+08    6.628980e-09    3.327005e-11    6.438960e-09    1.132350e-09   -2.880000e+00    7.765560e-01    1.587292e+00
    8.290895e-01    1.904732e+01    2.475469e+01    4.927738e+08    6.628745e-09    3.228696e-11    6.435630e-09    1.132070e-09   -2.870000e+00    7.765560e-01    1.579141e+00
    8.348333e-01    1.995962e+01    2.454959e+01    4.920927e+08    6.628530e-09    3.133649e-11    6.432275e-09    1.131791e-09   -2.860000e+00    7.765560e-01    1.570999e+00
    8.405571e-01    2.090352e+01    2.434480e+01    4.913485e+08    6.628325e-09    3.041747e-11    6.428905e-09    1.131514e-09   -2.850000e+00    7.765560e-01    1.562865e+00
    8.462623e-01    2.187810e+01    2.414034e+01    4.905430e+08    6.628135e-09    2.952875e-11    6.425510e-09    1.131237e-09   -2.840000e+00    7.765560e-01    1.554740e+00
    8.519520e-01    2.288232e+01    2.393623e+01    4.896789e+08    6.627955e-09    2.866924e-11    6.422095e-09    1.130962e-09   -2.830000e+00    7.765560e-01    1.546623e+00
    8.576287e-01    2.391503e+01    2.373249e+01    4.887585e+08    6.627785e-09    2.783788e-11    6.418660e-09    1.130688e-09   -2.820000e+00    7.765560e-01    1.538515e+00
    8.632953e-01    2.497501e+01    2.352915e+01    4.877841e+08    6.627630e-09    2.703366e-11    6.415205e-09    1.130415e-09   -2.810000e+00    7.765560e-01    1.530416e+00
    8.689547e-01    2.606090e+01    2.332625e+01    4.867586e+08    6.627480e-09    2.625559e-11    6.411735e-09    1.130142e-09   -2.800000e+00    7.765560e-01    1.522325e+00
    8.746098e-01    2.717139e+01    2.312377e+01    4.856842e+08    6.627340e-09    2.550275e-11    6.408245e-09    1.129872e-09   -2.790000e+00    7.765560e-01    1.514242e+00
    8.802638e-01    2.830505e+01    2.292177e+01    4.845627e+08    6.627215e-09    2.477423e-11    6.404735e-09    1.129602e-09   -2.780000e+00    7.765560e-01    1.506168e+00
    8.859202e-01    2.946055e+01    2.272023e+01    4.833978e+08    6.627090e-09    2.406916e-11    6.401205e-09    1.129333e-09   -2.770000e+00    7.765560e-01    1.498103e+00
    8.915814e-01    3.063645e+01    2.251920e+01    4.821904e+08    6.626980e-09    2.338670e-11    6.397660e-09    1.129066e-09   -2.760000e+00    7.765560e-01    1.490046e+00
    8.972514e-01    3.183144e+01    2.231869e+01    4.809436e+08    6.626875e-09    2.272604e-11    6.394095e-09    1.128799e-09   -2.750000e+00    7.765560e-01    1.481997e+00
    9.029328e-01    3.304420e+01    2.211870e+01    4.796594e+08    6.626775e-09    2.208642e-11    6.390520e-09    1.128533e-09   -2.740000e+00    7.765560e-01    1.473956e+00
    9.086288e-01    3.427350e+01    2.191926e+01    4.783398e+08    6.626680e-09    2.146709e-11    6.386920e-09    1.128267e-09   -2.730000e+00    7.765560e-01    1.465924e+00
    9.143422e-01    3.551813e+01    2.172038e+01    4.769862e+08    6.626595e-09    2.086733e-11    6.383305e-09    1.128003e-09   -2.720000e+00    7.765560e-01    1.457900e+00
    9.200762e-01    3.677698e+01    2.152207e+01    4.756009e+08    6.626515e-09    2.028646e-11    6.379675e-09    1.127739e-09   -2.710000e+00    7.765560e-01    1.449885e+00
    9.258333e-01    3.804907e+01    2.132434e+01    4.741859e+08    6.626435e-09    1.972380e-11    6.376030e-09    1.127477e-09   -2.700000e+00    7.765560e-01    1.441878e+00
    9.316164e-01    3.933341e+01    2.112722e+01    4.727420e+08    6.626365e-09    1.917872e-11    6.372370e-09    1.127214e-09   -2.690000e+00    7.765560e-01    1.433879e+00
    9.374285e-01    4.062918e+01    2.093070e+01    4.712715e+08    6.626295e-09    1.865061e-11    6.368690e-09    1.126953e-09   -2.680000e+00    7.765560e-01    1.425889e+00
    9.432717e-01    4.193558e+01    2.073480e+01    4.697753e+08    6.626230e-09    1.813888e-11    6.364995e-09    1.126692e-09   -2.670000e+00    7.765560e-01    1.417906e+00
    9.491485e-01    4.325194e+01    2.053953e+01    4.682548e+08    6.626170e-09    1.764295e-11    6.361285e-09    1.126432e-09   -2.660000e+00    7.765560e-01    1.409932e+00
    9.550617e-01    4.457766e+01    2.034490e+01    4.667111e+08    6.626115e-09    1.716228e-11    6.357560e-09    1.126172e-09   -2.650000e+00    7.765560e-01    1.401966e+00
    9.610134e-01    4.591223e+01    2.015092e+01    4.651458e+08    6.626060e-09    1.669635e-11    6.353820e-09    1.125913e-09   -2.640000e+00    7.765560e-01    1.394008e+00
    9.670060e-01    4.725520e+01    1.995760e+01    4.635598e+08    6.626005e-09    1.624464e-11    6.350060e-09    1.125655e-09   -2.630000e+00    7.765560e-01    1.386059e+00
    9.730417e-01    4.860624e+01    1.976494e+01    4.619538e+08    6.625955e-09    1.580667e-11    6.346290e-09    1.125396e-09   -2.620000e+00    7.765560e-01    1.378117e+00
    9.791225e-01    4.996502e+01    1.957296e+01    4.603290e+08    6.625905e-09    1.538196e-11    6.342500e-09    1.125139e-09   -2.610000e+00    7.765560e-01    1.370184e+00
    9.852502e-01    5.133133e+01    1.938166e+01    4.586861e+08    6.625855e-09    1.497008e-11    6.338700e-09    1.124881e-09   -2.600000e+00    7.765560e-01    1.362259e+00
    9.914275e-01    5.270502e+01    1.919104e+01    4.570262e+08    6.625805e-09    1.457058e-11    6.334885e-09    1.124624e-09   -2.590000e+00    7.765560e-01    1.354342e+00
    9.976562e-01    5.408596e+01    1.900112e+01    4.553493e+08    6.625760e-09    1.418303e-11    6.331050e-09    1.124367e-09   -2.580000e+00    7.765560e-01    1.346433e+00
    1.003938e+00    5.547412e+01    1.881191e+01    4.536566e+08    6.625715e-09    1.380704e-11    6.327205e-09    1.124110e-09   -2.570000e+00    7.765560e-01    1.338532e+00
    1.010275e+00    5.686946e+01    1.862341e+01    4.519489e+08    6.625665e-09    1.344222e-11    6.323340e-09    1.123854e-09   -2.560000e+00    7.765560e-01    1.330639e+00
    1.016669e+00    5.827206e+01    1.843562e+01    4.502263e+08    6.625620e-09    1.308820e-11    6.319465e-09    1.123598e-09   -2.550000e+00    7.765560e-01    1.322754e+00
    1.023121e+00    5.968196e+01    1.824855e+01    4.484897e+08    6.625570e-09    1.274460e-11    6.315575e-09    1.123342e-09   -2.540000e+00    7.765560e-01    1.314877e+00
    1.029635e+00    6.109931e+01    1.806221e+01    4.467395e+08    6.625520e-09    1.241109e-11    6.311665e-09    1.123086e-09   -2.530000e+00    7.765560e-01    1.307008e+00
    1.036211e+00    6.252422e+01    1.787661e+01    4.449760e+08    6.625470e-09    1.208734e-11    6.307745e-09    1.122831e-09   -2.520000e+00    7.765560e-01    1.299147e+00
    1.042851e+00    6.395691e+01    1.769174e+01    4.432000e+08    6.625415e-09    1.177302e-11    6.303810e-09    1.122574e-09   -2.510000e+00    7.765560e-01    1.291294e+00
    1.049557e+00    6.539752e+01    1.750761e+01    4.414114e+08    6.625360e-09    1.146781e-11    6.299855e-09    1.122319e-09   -2.500000e+00    7.765560e-01    1.283449e+00
    1.056331e+00    6.684633e+01    1.732424e+01    4.396108e+08    6.625305e-09    1.117142e-11    6.295890e-09    1.122063e-09   -2.490000e+00    7.765560e-01    1.275612e+00
    1.063174e+00    6.830355e+01    1.714161e+01    4.377985e+08    6.625245e-09    1.088357e-11    6.291910e-09    1.121806e-09   -2.480000e+00    7.765560e-01    1.267782e+00
    1.070089e+00    6.976948e+01    1.695975e+01    4.359748e+08    6.625185e-09    1.060397e-11    6.287910e-09    1.121551e-09   -2.470000e+00    7.765560e-01    1.259961e+00
    1.077077e+00    7.124437e+01    1.677864e+01    4.341402e+08    6.625120e-09    1.033234e-11    6.283900e-09    1.121294e-09   -2.460000e+00    7.765560e-01    1.252147e+00
    1.084140e+00    7.272856e+01    1.659831e+01    4.322945e+08    6.625055e-09    1.006845e-11    6.279875e-09    1.121038e-09   -2.450000e+00    7.765560e-01    1.244341e+00
    1.091279e+00    7.422232e+01    1.641875e+01    4.304388e+08    6.624980e-09    9.812035e-12    6.275830e-09    1.120781e-09   -2.440000e+00    7.765560e-01    1.236543e+00
    1.098497e+00    7.572599e+01    1.623996e+01    4.285721e+08    6.624910e-09    9.562860e-12    6.271775e-09    1.120524e-09   -2.430000e+00    7.765560e-01    1.228753e+00
    1.105795e+00    7.723993e+01    1.606196e+01    4.266959e+08    6.624830e-09    9.320685e-12    6.267700e-09    1.120266e-09   -2.420000e+00    7.765560e-01    1.220971e+00
    1.113175e+00    7.876445e+01    1.588474e+01    4.248097e+08    6.624745e-09    9.085295e-12    6.263615e-09    1.120008e-09   -2.410000e+00    7.765560e-01    1.213196e+00
    1.120638e+00    8.029991e+01    1.570831e+01    4.229134e+08    6.624660e-09    8.856475e-12    6.259510e-09    1.119750e-09   -2.400000e+00    7.765560e-01    1.205429e+00
    1.128188e+00    8.184672e+01    1.553267e+01    4.210081e+08    6.624565e-09    8.634010e-12    6.255390e-09    1.119491e-09   -2.390000e+00    7.765560e-01    1.197670e+00
    1.135825e+00    8.340519e+01    1.535783e+01    4.190931e+08    6.624470e-09    8.417700e-12    6.251255e-09    1.119232e-09   -2.380000e+00    7.765560e-01    1.189918e+00
    1.143552e+00    8.497573e+01    1.518379e+01    4.171688e+08    6.624370e-09    8.207360e-12    6.247105e-09    1.118972e-09   -2.370000e+00    7.765560e-01    1.182174e+00
    1.151370e+00    8.655869e+01    1.501057e+01    4.152356e+08    6.624260e-09    8.002795e-12    6.242940e-09    1.118712e-09   -2.360000e+00    7.765560e-01    1.174438e+00
    1.159281e+00    8.815451e+01    1.483814e+01    4.132936e+08    6.624145e-09    7.803830e-12    6.238755e-09    1.118451e-09   -2.350000e+00    7.765560e-01    1.166709e+00
    1.167288e+00    8.976359e+01    1.466654e+01    4.113423e+08    6.624030e-09    7.610290e-12    6.234555e-09    1.118189e-09   -2.340000e+00    7.765560e-01    1.158988e+00
    1.175392e+00    9.138630e+01    1.449575e+01    4.093826e+08    6.623905e-09    7.422005e-12    6.230340e-09    1.117927e-09   -2.330000e+00    7.765560e-01    1.151275e+00
    1.183596e+00    9.302308e+01    1.432578e+01    4.074145e+08    6.623770e-09    7.238815e-12    6.226110e-09    1.117664e-09   -2.320000e+00    7.765560e-01    1.143569e+00
    1.191902e+00    9.467431e+01    1.415663e+01    4.054375e+08    6.623635e-09    7.060560e-12    6.221860e-09    1.117400e-09   -2.310000e+00    7.765560e-01    1.135871e+00
    1.200310e+00    9.634045e+01    1.398831e+01    4.034522e+08    6.623490e-09    6.887090e-12    6.217595e-09    1.117135e-09   -2.300000e+00    7.765560e-01    1.128180e+00
    1.208826e+00    9.802190e+01    1.382082e+01    4.014588e+08    6.623335e-09    6.718265e-12    6.213310e-09    1.116870e-09   -2.290000e+00    7.765560e-01    1.120497e+00
    1.217449e+00    9.971911e+01    1.365417e+01    3.994568e+08    6.623180e-09    6.553940e-12    6.209010e-09    1.116603e-09   -2.280000e+00    7.765560e-01    1.112821e+00
    1.226184e+00    1.014325e+02    1.348836e+01    3.974470e+08    6.623010e-09    6.393975e-12    6.204695e-09    1.116335e-09   -2.270000e+00    7.765560e-01    1.105153e+00
    1.235030e+00    1.031626e+02    1.332339e+01    3.954289e+08    6.622835e-09    6.238240e-12    6.200360e-09    1.116067e-09   -2.260000e+00    7.765560e-01    1.097493e+00
    1.243992e+00    1.049097e+02    1.315927e+01    3.934026e+08    6.622655e-09    6.086615e-12    6.196005e-09    1.115798e-09   -2.250000e+00    7.765560e-01    1.089839e+00
    1.253072e+00    1.066745e+02    1.299599e+01    3.913685e+08    6.622465e-09    5.938970e-12    6.191635e-09    1.115527e-09   -2.240000e+00    7.765560e-01    1.082194e+00
    1.262272e+00    1.084572e+02    1.283357e+01    3.893265e+08    6.622265e-09    5.795185e-12    6.187245e-09    1.115255e-09   -2.230000e+00    7.765560e-01    1.074555e+00
    1.271595e+00    1.102584e+02    1.267200e+01    3.872764e+08    6.622060e-09    5.655150e-12    6.182840e-09    1.114982e-09   -2.220000e+00    7.765560e-01    1.066924e+00
