# GF180MCU-D nfet_03v3 gm/ID Processed Lookup Table
# Corner: ff
# Temperature: 85C
# W = 2.0 um
# L = 3.5 um (3500 nm)
# Columns: gm/id [1/V]  gm/gds [V/V]  id/W [A/m]  ft [Hz]  Cgg/W [F/m]  Cgd/W [F/m]  Cgs/W [F/m]  Cdb/W [F/m]  vgs [V]  vth [V]  vdsat [V]
# vdsat = BSIM saturation voltage (|VDS|_sat, positive); use for headroom / saturation / cascode-bias calculations
#           gm/id          gm/gds            id/W              ft           Cgg/W           Cgd/W           Cgs/W           Cdb/W             vgs             vth           vdsat
    2.286866e+01    6.311097e+02    8.192440e-05    6.361218e+04    4.687419e-09    2.252089e-15    1.903991e-10    3.984813e-11    1.600000e-01    4.847264e-01    4.545553e-02
    2.285440e+01    6.296181e+02    1.029692e-04    7.990218e+04    4.687471e-09    2.514223e-15    2.142453e-10    4.432731e-11    1.700000e-01    4.847264e-01    4.547316e-02
    2.282389e+01    6.280090e+02    1.293908e-04    1.002216e+05    4.689771e-09    2.806871e-15    2.409861e-10    4.930784e-11    1.800000e-01    4.847264e-01    4.549528e-02
    2.277866e+01    6.262821e+02    1.625304e-04    1.255131e+05    4.694549e-09    3.133584e-15    2.709480e-10    5.484275e-11    1.900000e-01    4.847264e-01    4.552299e-02
    2.271987e+01    6.244389e+02    2.040515e-04    1.569197e+05    4.702059e-09    3.498311e-15    3.044878e-10    6.098950e-11    2.000000e-01    4.847264e-01    4.555767e-02
    2.264831e+01    6.224860e+02    2.560127e-04    1.958209e+05    4.712577e-09    3.905430e-15    3.419927e-10    6.781010e-11    2.100000e-01    4.847264e-01    4.560100e-02
    2.256463e+01    6.204352e+02    3.209562e-04    2.438729e+05    4.726403e-09    4.359794e-15    3.838819e-10    7.537105e-11    2.200000e-01    4.847264e-01    4.565504e-02
    2.246923e+01    6.183036e+02    4.020140e-04    3.030525e+05    4.743858e-09    4.866765e-15    4.306063e-10    8.374345e-11    2.300000e-01    4.847264e-01    4.572233e-02
    2.236248e+01    6.161167e+02    5.030340e-04    3.757061e+05    4.765289e-09    5.432255e-15    4.826489e-10    9.300265e-11    2.400000e-01    4.847264e-01    4.580593e-02
    2.224468e+01    6.139089e+02    6.287325e-04    4.646010e+05    4.791066e-09    6.062780e-15    5.405230e-10    1.032281e-10    2.500000e-01    4.847264e-01    4.590956e-02
    2.211618e+01    6.117259e+02    7.848735e-04    5.729815e+05    4.821580e-09    6.765475e-15    6.047700e-10    1.145027e-10    2.600000e-01    4.847264e-01    4.603768e-02
    2.197738e+01    6.096251e+02    9.784815e-04    7.046267e+05    4.857240e-09    7.548170e-15    6.759590e-10    1.269122e-10    2.700000e-01    4.847264e-01    4.619564e-02
    2.182873e+01    6.076767e+02    1.218095e-03    8.639108e+05    4.898475e-09    8.419405e-15    7.546775e-10    1.405448e-10    2.800000e-01    4.847264e-01    4.638977e-02
    2.167080e+01    6.059655e+02    1.514063e-03    1.055867e+06    4.945722e-09    9.388460e-15    8.415295e-10    1.554888e-10    2.900000e-01    4.847264e-01    4.662750e-02
    2.150421e+01    6.045890e+02    1.878891e-03    1.286249e+06    4.999427e-09    1.046541e-14    9.371250e-10    1.718324e-10    3.000000e-01    4.847264e-01    4.691753e-02
    2.132968e+01    6.036590e+02    2.327653e-03    1.561598e+06    5.060035e-09    1.166111e-14    1.042071e-09    1.896610e-10    3.100000e-01    4.847264e-01    4.726985e-02
    2.114784e+01    6.032973e+02    2.878464e-03    1.889301e+06    5.127975e-09    1.298725e-14    1.156959e-09    2.090556e-10    3.200000e-01    4.847264e-01    4.769591e-02
    2.095924e+01    6.036321e+02    3.553030e-03    2.277638e+06    5.203670e-09    1.445633e-14    1.282348e-09    2.300900e-10    3.300000e-01    4.847264e-01    4.820854e-02
    2.076421e+01    6.047952e+02    4.377274e-03    2.735834e+06    5.287490e-09    1.608166e-14    1.418749e-09    2.528283e-10    3.400000e-01    4.847264e-01    4.882203e-02
    2.056269e+01    6.069118e+02    5.382050e-03    3.274034e+06    5.379780e-09    1.787731e-14    1.566608e-09    2.773216e-10    3.500000e-01    4.847264e-01    4.955197e-02
    2.035413e+01    6.100949e+02    6.603910e-03    3.903275e+06    5.480810e-09    1.985807e-14    1.726281e-09    3.036049e-10    3.600000e-01    4.847264e-01    5.041510e-02
    2.013737e+01    6.144355e+02    8.085965e-03    4.635357e+06    5.590770e-09    2.203942e-14    1.898012e-09    3.316939e-10    3.700000e-01    4.847264e-01    5.142904e-02
    1.991067e+01    6.199937e+02    9.878710e-03    5.482617e+06    5.709765e-09    2.443739e-14    2.081914e-09    3.615815e-10    3.800000e-01    4.847264e-01    5.261192e-02
    1.967161e+01    6.267895e+02    1.204088e-02    6.457587e+06    5.837780e-09    2.706847e-14    2.277946e-09    3.932354e-10    3.900000e-01    4.847264e-01    5.398196e-02
    1.941733e+01    6.347970e+02    1.464016e-02    7.572519e+06    5.974685e-09    2.994948e-14    2.485892e-09    4.265949e-10    4.000000e-01    4.847264e-01    5.555695e-02
    1.914475e+01    6.439401e+02    1.775376e-02    8.838810e+06    6.120210e-09    3.309741e-14    2.705344e-09    4.615697e-10    4.100000e-01    4.847264e-01    5.735366e-02
    1.885081e+01    6.540938e+02    2.146871e-02    1.026635e+07    6.273935e-09    3.652926e-14    2.935697e-09    4.980388e-10    4.200000e-01    4.847264e-01    5.938734e-02
    1.853290e+01    6.650847e+02    2.588175e-02    1.186284e+07    6.435295e-09    4.026183e-14    3.176136e-09    5.358505e-10    4.300000e-01    4.847264e-01    6.167113e-02
    1.818911e+01    6.767021e+02    3.109888e-02    1.363317e+07    6.603580e-09    4.431159e-14    3.425650e-09    5.748245e-10    4.400000e-01    4.847264e-01    6.421563e-02
    1.781856e+01    6.887073e+02    3.723446e-02    1.557904e+07    6.777930e-09    4.869440e-14    3.683029e-09    6.147535e-10    4.500000e-01    4.847264e-01    6.702856e-02
    1.742152e+01    7.008470e+02    4.440973e-02    1.769860e+07    6.957375e-09    5.342540e-14    3.946898e-09    6.554075e-10    4.600000e-01    4.847264e-01    7.011454e-02
    1.699947e+01    7.128668e+02    5.275110e-02    1.998658e+07    7.140825e-09    5.851880e-14    4.215738e-09    6.965400e-10    4.700000e-01    4.847264e-01    7.347499e-02
    1.655494e+01    7.245243e+02    6.238820e-02    2.243456e+07    7.327110e-09    6.398780e-14    4.487918e-09    7.378920e-10    4.800000e-01    4.847264e-01    7.710824e-02
    1.609145e+01    7.356004e+02    7.345135e-02    2.503140e+07    7.515015e-09    6.984425e-14    4.761747e-09    7.792000e-10    4.900000e-01    4.847264e-01    8.100973e-02
    1.561310e+01    7.459088e+02    8.606975e-02    2.776410e+07    7.703290e-09    7.609885e-14    5.035505e-09    8.202025e-10    5.000000e-01    4.847264e-01    8.517232e-02
    1.512439e+01    7.552989e+02    1.003689e-01    3.061829e+07    7.890715e-09    8.276095e-14    5.307490e-09    8.606465e-10    5.100000e-01    4.847264e-01    8.958667e-02
    1.462989e+01    7.636607e+02    1.164693e-01    3.357930e+07    8.076090e-09    8.983850e-14    5.576080e-09    9.002940e-10    5.200000e-01    4.847264e-01    9.424169e-02
    1.413402e+01    7.709215e+02    1.344844e-01    3.663251e+07    8.258305e-09    9.733805e-14    5.839735e-09    9.389280e-10    5.300000e-01    4.847264e-01    9.912499e-02
    1.364087e+01    7.770452e+02    1.545194e-01    3.976412e+07    8.436335e-09    1.052650e-13    6.097075e-09    9.763555e-10    5.400000e-01    4.847264e-01    1.042233e-01
    1.315408e+01    7.820263e+02    1.766708e-01    4.296144e+07    8.609275e-09    1.136234e-13    6.346870e-09    1.012412e-09    5.500000e-01    4.847264e-01    1.095227e-01
    1.267673e+01    7.858856e+02    2.010259e-01    4.621316e+07    8.776345e-09    1.224163e-13    6.588075e-09    1.046963e-09    5.600000e-01    4.847264e-01    1.150095e-01
    1.221136e+01    7.886641e+02    2.276624e-01    4.950943e+07    8.936910e-09    1.316457e-13    6.819835e-09    1.079904e-09    5.700000e-01    4.847264e-01    1.206696e-01
    1.175994e+01    7.904182e+02    2.566487e-01    5.284195e+07    9.090455e-09    1.413129e-13    7.041490e-09    1.111161e-09    5.800000e-01    4.847264e-01    1.264897e-01
    1.132397e+01    7.912146e+02    2.880445e-01    5.620367e+07    9.236630e-09    1.514184e-13    7.252580e-09    1.140690e-09    5.900000e-01    4.847264e-01    1.324568e-01
    1.090445e+01    7.911267e+02    3.219007e-01    5.958900e+07    9.375185e-09    1.619622e-13    7.452805e-09    1.168470e-09    6.000000e-01    4.847264e-01    1.385586e-01
    1.050202e+01    7.902305e+02    3.582609e-01    6.299326e+07    9.506010e-09    1.729439e-13    7.642045e-09    1.194508e-09    6.100000e-01    4.847264e-01    1.447835e-01
    1.011697e+01    7.886024e+02    3.971611e-01    6.641277e+07    9.629100e-09    1.843630e-13    7.820320e-09    1.218828e-09    6.200000e-01    4.847264e-01    1.511208e-01
    9.749320e+00    7.863175e+02    4.386313e-01    6.984468e+07    9.744525e-09    1.962187e-13    7.987775e-09    1.241472e-09    6.300000e-01    4.847264e-01    1.575605e-01
    9.398880e+00    7.834483e+02    4.826954e-01    7.328667e+07    9.852455e-09    2.085104e-13    8.144665e-09    1.262498e-09    6.400000e-01    4.847264e-01    1.640933e-01
    9.065283e+00    7.800604e+02    5.293730e-01    7.673694e+07    9.953110e-09    2.212375e-13    8.291330e-09    1.281973e-09    6.500000e-01    4.847264e-01    1.707109e-01
    8.748052e+00    7.762188e+02    5.786780e-01    8.019406e+07    1.004677e-08    2.343996e-13    8.428170e-09    1.299973e-09    6.600000e-01    4.847264e-01    1.774054e-01
    8.446605e+00    7.719805e+02    6.306220e-01    8.365688e+07    1.013374e-08    2.479967e-13    8.555650e-09    1.316578e-09    6.700000e-01    4.847264e-01    1.841700e-01
    8.160301e+00    7.673988e+02    6.852125e-01    8.712448e+07    1.021437e-08    2.620292e-13    8.674255e-09    1.331873e-09    6.800000e-01    4.847264e-01    1.909982e-01
    7.888469e+00    7.625215e+02    7.424540e-01    9.059608e+07    1.028900e-08    2.764975e-13    8.784495e-09    1.345942e-09    6.900000e-01    4.847264e-01    1.978843e-01
    7.630415e+00    7.573919e+02    8.023495e-01    9.407101e+07    1.035801e-08    2.914030e-13    8.886895e-09    1.358872e-09    7.000000e-01    4.847264e-01    2.048232e-01
    7.385440e+00    7.520477e+02    8.648990e-01    9.754870e+07    1.042175e-08    3.067473e-13    8.981960e-09    1.370745e-09    7.100000e-01    4.847264e-01    2.118101e-01
    7.152850e+00    7.465244e+02    9.301020e-01    1.010286e+08    1.048059e-08    3.225324e-13    9.070210e-09    1.381642e-09    7.200000e-01    4.847264e-01    2.188408e-01
    6.931972e+00    7.408522e+02    9.979555e-01    1.045102e+08    1.053487e-08    3.387612e-13    9.152140e-09    1.391640e-09    7.300000e-01    4.847264e-01    2.259116e-01
    6.722136e+00    7.350568e+02    1.068456e+00    1.079930e+08    1.058495e-08    3.554368e-13    9.228220e-09    1.400814e-09    7.400000e-01    4.847264e-01    2.330191e-01
    6.522727e+00    7.291628e+02    1.141600e+00    1.114767e+08    1.063112e-08    3.725628e-13    9.298910e-09    1.409233e-09    7.500000e-01    4.847264e-01    2.401602e-01
    6.333122e+00    7.231898e+02    1.217382e+00    1.149606e+08    1.067372e-08    3.901437e-13    9.364635e-09    1.416962e-09    7.600000e-01    4.847264e-01    2.473323e-01
    6.152758e+00    7.171561e+02    1.295794e+00    1.184444e+08    1.071301e-08    4.081841e-13    9.425800e-09    1.424061e-09    7.700000e-01    4.847264e-01    2.545328e-01
    5.981083e+00    7.110771e+02    1.376834e+00    1.219276e+08    1.074928e-08    4.266895e-13    9.482780e-09    1.430586e-09    7.800000e-01    4.847264e-01    2.617596e-01
    5.817583e+00    7.049661e+02    1.460492e+00    1.254098e+08    1.078277e-08    4.456658e-13    9.535930e-09    1.436590e-09    7.900000e-01    4.847264e-01    2.690107e-01
    5.661771e+00    6.988345e+02    1.546762e+00    1.288904e+08    1.081372e-08    4.651193e-13    9.585570e-09    1.442119e-09    8.000000e-01    4.847264e-01    2.762843e-01
    5.513191e+00    6.926926e+02    1.635637e+00    1.323693e+08    1.084234e-08    4.850569e-13    9.632005e-09    1.447219e-09    8.100000e-01    4.847264e-01    2.835790e-01
    5.371414e+00    6.865485e+02    1.727110e+00    1.358457e+08    1.086883e-08    5.054860e-13    9.675510e-09    1.451927e-09    8.200000e-01    4.847264e-01    2.908932e-01
    5.236034e+00    6.804095e+02    1.821175e+00    1.393193e+08    1.089339e-08    5.264150e-13    9.716340e-09    1.456283e-09    8.300000e-01    4.847264e-01    2.982257e-01
    5.106677e+00    6.742813e+02    1.917822e+00    1.427897e+08    1.091617e-08    5.478515e-13    9.754730e-09    1.460317e-09    8.400000e-01    4.847264e-01    3.055754e-01
    4.982989e+00    6.681697e+02    2.017047e+00    1.462564e+08    1.093733e-08    5.698050e-13    9.790885e-09    1.464061e-09    8.500000e-01    4.847264e-01    3.129412e-01
    4.864642e+00    6.620787e+02    2.118838e+00    1.497192e+08    1.095700e-08    5.922850e-13    9.825010e-09    1.467541e-09    8.600000e-01    4.847264e-01    3.203222e-01
    4.751327e+00    6.560119e+02    2.223191e+00    1.531774e+08    1.097532e-08    6.153010e-13    9.857270e-09    1.470782e-09    8.700000e-01    4.847264e-01    3.277177e-01
    4.642758e+00    6.499725e+02    2.330098e+00    1.566310e+08    1.099241e-08    6.388635e-13    9.887835e-09    1.473807e-09    8.800000e-01    4.847264e-01    3.351267e-01
    4.538660e+00    6.439622e+02    2.439551e+00    1.600792e+08    1.100836e-08    6.629830e-13    9.916845e-09    1.476635e-09    8.900000e-01    4.847264e-01    3.425488e-01
    4.438787e+00    6.379838e+02    2.551541e+00    1.635220e+08    1.102328e-08    6.876715e-13    9.944440e-09    1.479285e-09    9.000000e-01    4.847264e-01    3.499833e-01
    4.342906e+00    6.320387e+02    2.666063e+00    1.669590e+08    1.103726e-08    7.129400e-13    9.970735e-09    1.481774e-09    9.100000e-01    4.847264e-01    3.574296e-01
    4.250793e+00    6.261283e+02    2.783108e+00    1.703898e+08    1.105037e-08    7.388015e-13    9.995840e-09    1.484116e-09    9.200000e-01    4.847264e-01    3.648872e-01
    4.162246e+00    6.202533e+02    2.902668e+00    1.738140e+08    1.106269e-08    7.652680e-13    1.001986e-08    1.486324e-09    9.300000e-01    4.847264e-01    3.723558e-01
    4.077071e+00    6.144145e+02    3.024738e+00    1.772315e+08    1.107427e-08    7.923535e-13    1.004288e-08    1.488410e-09    9.400000e-01    4.847264e-01    3.798349e-01
    3.995091e+00    6.086125e+02    3.149308e+00    1.806419e+08    1.108520e-08    8.200710e-13    1.006498e-08    1.490386e-09    9.500000e-01    4.847264e-01    3.873241e-01
    3.916138e+00    6.028479e+02    3.276371e+00    1.840451e+08    1.109550e-08    8.484345e-13    1.008623e-08    1.492262e-09    9.600000e-01    4.847264e-01    3.948231e-01
    3.840055e+00    5.971205e+02    3.405919e+00    1.874406e+08    1.110525e-08    8.774595e-13    1.010671e-08    1.494044e-09    9.700000e-01    4.847264e-01    4.023317e-01
    3.766694e+00    5.914307e+02    3.537946e+00    1.908284e+08    1.111447e-08    9.071605e-13    1.012647e-08    1.495743e-09    9.800000e-01    4.847264e-01    4.098496e-01
    3.695919e+00    5.857786e+02    3.672443e+00    1.942083e+08    1.112321e-08    9.375535e-13    1.014558e-08    1.497365e-09    9.900000e-01    4.847264e-01    4.173764e-01
    3.627600e+00    5.801636e+02    3.809405e+00    1.975799e+08    1.113150e-08    9.686540e-13    1.016407e-08    1.498915e-09    1.000000e+00    4.847264e-01    4.249121e-01
    3.561615e+00    5.745859e+02    3.948821e+00    2.009430e+08    1.113940e-08    1.000480e-12    1.018199e-08    1.500401e-09    1.010000e+00    4.847264e-01    4.324564e-01
    3.497853e+00    5.690454e+02    4.090686e+00    2.042978e+08    1.114690e-08    1.033047e-12    1.019940e-08    1.501828e-09    1.020000e+00    4.847264e-01    4.400091e-01
    3.436205e+00    5.635416e+02    4.234991e+00    2.076437e+08    1.115406e-08    1.066373e-12    1.021632e-08    1.503199e-09    1.030000e+00    4.847264e-01    4.475701e-01
    3.376571e+00    5.580742e+02    4.381729e+00    2.109808e+08    1.116089e-08    1.100478e-12    1.023278e-08    1.504519e-09    1.040000e+00    4.847264e-01    4.551392e-01
    3.318857e+00    5.526428e+02    4.530893e+00    2.143088e+08    1.116741e-08    1.135379e-12    1.024882e-08    1.505793e-09    1.050000e+00    4.847264e-01    4.627163e-01
    3.262975e+00    5.472471e+02    4.682474e+00    2.176277e+08    1.117365e-08    1.171097e-12    1.026447e-08    1.507023e-09    1.060000e+00    4.847264e-01    4.703013e-01
    3.208840e+00    5.418868e+02    4.836466e+00    2.209374e+08    1.117962e-08    1.207651e-12    1.027975e-08    1.508214e-09    1.070000e+00    4.847264e-01    4.778941e-01
    3.156374e+00    5.365612e+02    4.992861e+00    2.242376e+08    1.118535e-08    1.245061e-12    1.029469e-08    1.509366e-09    1.080000e+00    4.847264e-01    4.854945e-01
    3.105503e+00    5.312702e+02    5.151650e+00    2.275284e+08    1.119085e-08    1.283350e-12    1.030930e-08    1.510484e-09    1.090000e+00    4.847264e-01    4.931026e-01
    3.056158e+00    5.260133e+02    5.312825e+00    2.308096e+08    1.119612e-08    1.322538e-12    1.032362e-08    1.511570e-09    1.100000e+00    4.847264e-01    5.007182e-01
    3.008266e+00    5.207896e+02    5.476385e+00    2.340810e+08    1.120119e-08    1.362650e-12    1.033764e-08    1.512625e-09    1.110000e+00    4.847264e-01    5.083412e-01
    2.961773e+00    5.155992e+02    5.642315e+00    2.373427e+08    1.120607e-08    1.403707e-12    1.035140e-08    1.513652e-09    1.120000e+00    4.847264e-01    5.159717e-01
    2.916619e+00    5.104415e+02    5.810605e+00    2.405946e+08    1.121076e-08    1.445733e-12    1.036490e-08    1.514651e-09    1.130000e+00    4.847264e-01    5.236095e-01
    2.872743e+00    5.053158e+02    5.981255e+00    2.438364e+08    1.121530e-08    1.488754e-12    1.037817e-08    1.515626e-09    1.140000e+00    4.847264e-01    5.312546e-01
    2.830095e+00    5.002219e+02    6.154255e+00    2.470683e+08    1.121966e-08    1.532795e-12    1.039120e-08    1.516578e-09    1.150000e+00    4.847264e-01    5.389070e-01
    2.788625e+00    4.951592e+02    6.329595e+00    2.502901e+08    1.122387e-08    1.577882e-12    1.040402e-08    1.517508e-09    1.160000e+00    4.847264e-01    5.465666e-01
    2.748285e+00    4.901274e+02    6.507270e+00    2.535018e+08    1.122793e-08    1.624042e-12    1.041663e-08    1.518416e-09    1.170000e+00    4.847264e-01    5.542335e-01
    2.709029e+00    4.851258e+02    6.687270e+00    2.567030e+08    1.123186e-08    1.671302e-12    1.042905e-08    1.519305e-09    1.180000e+00    4.847264e-01    5.619075e-01
    2.670816e+00    4.801543e+02    6.869590e+00    2.598941e+08    1.123565e-08    1.719692e-12    1.044129e-08    1.520175e-09    1.190000e+00    4.847264e-01    5.695887e-01
    2.633606e+00    4.752123e+02    7.054215e+00    2.630749e+08    1.123932e-08    1.769240e-12    1.045334e-08    1.521026e-09    1.200000e+00    4.847264e-01    5.772771e-01
    2.597359e+00    4.702992e+02    7.241145e+00    2.662453e+08    1.124288e-08    1.819977e-12    1.046523e-08    1.521861e-09    1.210000e+00    4.847264e-01    5.849726e-01
    2.562037e+00    4.654148e+02    7.430370e+00    2.694052e+08    1.124631e-08    1.871934e-12    1.047695e-08    1.522680e-09    1.220000e+00    4.847264e-01    5.926752e-01
    2.527608e+00    4.605586e+02    7.621880e+00    2.725546e+08    1.124964e-08    1.925144e-12    1.048852e-08    1.523484e-09    1.230000e+00    4.847264e-01    6.003850e-01
    2.494038e+00    4.557303e+02    7.815670e+00    2.756936e+08    1.125286e-08    1.979639e-12    1.049994e-08    1.524272e-09    1.240000e+00    4.847264e-01    6.081019e-01
