# GF180MCU-D nfet_03v3 gm/ID Processed Lookup Table
# Corner: ff
# Temperature: 85C
# W = 2.0 um
# L = 0.5 um (500 nm)
# Columns: gm/id [1/V]  gm/gds [V/V]  id/W [A/m]  ft [Hz]  Cgg/W [F/m]  Cgd/W [F/m]  Cgs/W [F/m]  Cdb/W [F/m]  vgs [V]  vth [V]  vdsat [V]
# vdsat = BSIM saturation voltage (|VDS|_sat, positive); use for headroom / saturation / cascode-bias calculations
#           gm/id          gm/gds            id/W              ft           Cgg/W           Cgd/W           Cgs/W           Cdb/W             vgs             vth           vdsat
    2.328247e+01    1.696747e+02    1.697642e-04    9.780426e+05    6.431875e-10    8.900770e-15    7.391105e-12    1.848064e-12    1.400000e-01    5.318925e-01    5.891514e-02
    2.327650e+01    1.695033e+02    2.142654e-04    1.237483e+06    6.414320e-10    9.923985e-15    8.463440e-12    2.057236e-12    1.500000e-01    5.318925e-01    5.891917e-02
    2.326251e+01    1.693162e+02    2.704048e-04    1.564741e+06    6.398065e-10    1.106612e-14    9.672815e-12    2.290094e-12    1.600000e-01    5.318925e-01    5.892425e-02
    2.324121e+01    1.691119e+02    3.411929e-04    1.977144e+06    6.383230e-10    1.234199e-14    1.103601e-11    2.549401e-12    1.700000e-01    5.318925e-01    5.893065e-02
    2.321305e+01    1.688889e+02    4.304057e-04    2.496286e+06    6.369950e-10    1.376835e-14    1.257195e-11    2.838241e-12    1.800000e-01    5.318925e-01    5.893872e-02
    2.317829e+01    1.686455e+02    5.427740e-04    3.149011e+06    6.358380e-10    1.536404e-14    1.430195e-11    3.160051e-12    1.900000e-01    5.318925e-01    5.894889e-02
    2.313698e+01    1.683798e+02    6.842195e-04    3.968610e+06    6.348685e-10    1.715025e-14    1.624991e-11    3.518650e-12    2.000000e-01    5.318925e-01    5.896168e-02
    2.308911e+01    1.680907e+02    8.621400e-04    4.996240e+06    6.341060e-10    1.915069e-14    1.844257e-11    3.918274e-12    2.100000e-01    5.318925e-01    5.897775e-02
    2.303449e+01    1.677762e+02    1.085770e-03    6.282611e+06    6.335725e-10    2.139186e-14    2.090974e-11    4.363600e-12    2.200000e-01    5.318925e-01    5.899795e-02
    2.297288e+01    1.674352e+02    1.366613e-03    7.890013e+06    6.332910e-10    2.390318e-14    2.368451e-11    4.859785e-12    2.300000e-01    5.318925e-01    5.902331e-02
    2.290395e+01    1.670665e+02    1.718976e-03    9.894594e+06    6.332895e-10    2.671731e-14    2.680354e-11    5.412490e-12    2.400000e-01    5.318925e-01    5.905509e-02
    2.282732e+01    1.666696e+02    2.160620e-03    1.238912e+07    6.335965e-10    2.987026e-14    3.030723e-11    6.027905e-12    2.500000e-01    5.318925e-01    5.909488e-02
    2.274259e+01    1.662441e+02    2.713542e-03    1.548600e+07    6.342450e-10    3.340166e-14    3.423996e-11    6.712780e-12    2.600000e-01    5.318925e-01    5.914464e-02
    2.264933e+01    1.657908e+02    3.404931e-03    1.932078e+07    6.352710e-10    3.735490e-14    3.865023e-11    7.474440e-12    2.700000e-01    5.318925e-01    5.920675e-02
    2.254715e+01    1.653113e+02    4.268309e-03    2.405605e+07    6.367125e-10    4.177730e-14    4.359091e-11    8.320795e-12    2.800000e-01    5.318925e-01    5.928417e-02
    2.243565e+01    1.648080e+02    5.344900e-03    2.988550e+07    6.386130e-10    4.672022e-14    4.911927e-11    9.260355e-12    2.900000e-01    5.318925e-01    5.938047e-02
    2.231452e+01    1.642855e+02    6.685260e-03    3.703876e+07    6.410170e-10    5.223910e-14    5.529705e-11    1.030221e-11    3.000000e-01    5.318925e-01    5.949999e-02
    2.218352e+01    1.637496e+02    8.351210e-03    4.578582e+07    6.439750e-10    5.839350e-14    6.219045e-11    1.145602e-11    3.100000e-01    5.318925e-01    5.964798e-02
    2.204251e+01    1.632083e+02    1.041814e-02    5.644241e+07    6.475385e-10    6.524690e-14    6.987000e-11    1.273195e-11    3.200000e-01    5.318925e-01    5.983075e-02
    2.189145e+01    1.626719e+02    1.297766e-02    6.937462e+07    6.517640e-10    7.286660e-14    7.841025e-11    1.414065e-11    3.300000e-01    5.318925e-01    6.005578e-02
    2.173045e+01    1.621532e+02    1.614079e-02    8.500422e+07    6.567095e-10    8.132320e-14    8.788945e-11    1.569314e-11    3.400000e-01    5.318925e-01    6.033196e-02
    2.155973e+01    1.616675e+02    2.004163e-02    1.038131e+08    6.624365e-10    9.069015e-14    9.838870e-11    1.740069e-11    3.500000e-01    5.318925e-01    6.066967e-02
    2.137961e+01    1.612326e+02    2.484158e-02    1.263481e+08    6.690070e-10    1.010429e-13    1.099912e-10    1.927466e-11    3.600000e-01    5.318925e-01    6.108099e-02
    2.119046e+01    1.608684e+02    3.073430e-02    1.532235e+08    6.764855e-10    1.124579e-13    1.227814e-10    2.132633e-11    3.700000e-01    5.318925e-01    6.157978e-02
    2.099263e+01    1.605966e+02    3.795134e-02    1.851249e+08    6.849350e-10    1.250113e-13    1.368427e-10    2.356662e-11    3.800000e-01    5.318925e-01    6.218177e-02
    2.078640e+01    1.604395e+02    4.676848e-02    2.228085e+08    6.944180e-10    1.387774e-13    1.522568e-10    2.600585e-11    3.900000e-01    5.318925e-01    6.290454e-02
    2.057180e+01    1.604187e+02    5.751295e-02    2.670994e+08    7.049935e-10    1.538264e-13    1.691005e-10    2.865335e-11    4.000000e-01    5.318925e-01    6.376750e-02
    2.034855e+01    1.605542e+02    7.057120e-02    3.188851e+08    7.167155e-10    1.702226e-13    1.874440e-10    3.151717e-11    4.100000e-01    5.318925e-01    6.479164e-02
    2.011588e+01    1.608615e+02    8.639720e-02    3.791011e+08    7.296320e-10    1.880216e-13    2.073478e-10    3.460360e-11    4.200000e-01    5.318925e-01    6.599926e-02
    1.987256e+01    1.613506e+02    1.055209e-01    4.487116e+08    7.437810e-10    2.072676e-13    2.288596e-10    3.791678e-11    4.300000e-01    5.318925e-01    6.741356e-02
    1.961672e+01    1.620242e+02    1.285566e-01    5.286777e+08    7.591890e-10    2.279905e-13    2.520115e-10    4.145826e-11    4.400000e-01    5.318925e-01    6.905802e-02
    1.934606e+01    1.628755e+02    1.562097e-01    6.199146e+08    7.758695e-10    2.502029e-13    2.768163e-10    4.522659e-11    4.500000e-01    5.318925e-01    7.095577e-02
    1.905791e+01    1.638882e+02    1.892818e-01    7.232414e+08    7.938180e-10    2.738973e-13    3.032649e-10    4.921689e-11    4.600000e-01    5.318925e-01    7.312880e-02
    1.874948e+01    1.650359e+02    2.286731e-01    8.393183e+08    8.130135e-10    2.990435e-13    3.313233e-10    5.342060e-11    4.700000e-01    5.318925e-01    7.559716e-02
    1.841815e+01    1.662831e+02    2.753805e-01    9.685869e+08    8.334140e-10    3.255864e-13    3.609306e-10    5.782525e-11    4.800000e-01    5.318925e-01    7.837816e-02
    1.806184e+01    1.675867e+02    3.304902e-01    1.111212e+09    8.549560e-10    3.534451e-13    3.919973e-10    6.241435e-11    4.900000e-01    5.318925e-01    8.148567e-02
    1.767925e+01    1.688989e+02    3.951662e-01    1.267038e+09    8.775545e-10    3.825118e-13    4.244052e-10    6.716750e-11    5.000000e-01    5.318925e-01    8.492951e-02
    1.727015e+01    1.701696e+02    4.706321e-01    1.435565e+09    9.011040e-10    4.126526e-13    4.580078e-10    7.206040e-11    5.100000e-01    5.318925e-01    8.871504e-02
    1.683542e+01    1.713494e+02    5.581495e-01    1.615952e+09    9.254780e-10    4.437093e-13    4.926322e-10    7.706570e-11    5.200000e-01    5.318925e-01    9.284299e-02
    1.637717e+01    1.723929e+02    6.589905e-01    1.807054e+09    9.505325e-10    4.755016e-13    5.280825e-10    8.215310e-11    5.300000e-01    5.318925e-01    9.730948e-02
    1.589849e+01    1.732609e+02    7.744120e-01    2.007472e+09    9.761095e-10    5.078320e-13    5.641440e-10    8.729025e-11    5.400000e-01    5.318925e-01    1.021063e-01
    1.540329e+01    1.739214e+02    9.056255e-01    2.215631e+09    1.002040e-09    5.404895e-13    6.005880e-10    9.244370e-11    5.500000e-01    5.318925e-01    1.072212e-01
    1.489605e+01    1.743517e+02    1.053772e+00    2.429869e+09    1.028147e-09    5.732550e-13    6.371785e-10    9.757950e-11    5.600000e-01    5.318925e-01    1.126387e-01
    1.438150e+01    1.745376e+02    1.219900e+00    2.648522e+09    1.054253e-09    6.059090e-13    6.736775e-10    1.026644e-10    5.700000e-01    5.318925e-01    1.183407e-01
    1.386435e+01    1.744733e+02    1.404946e+00    2.869995e+09    1.080185e-09    6.382350e-13    7.098525e-10    1.076665e-10    5.800000e-01    5.318925e-01    1.243071e-01
    1.334908e+01    1.741608e+02    1.609725e+00    3.092833e+09    1.105775e-09    6.700260e-13    7.454825e-10    1.125563e-10    5.900000e-01    5.318925e-01    1.305165e-01
    1.283975e+01    1.736080e+02    1.834922e+00    3.315752e+09    1.130869e-09    7.010910e-13    7.803625e-10    1.173070e-10    6.000000e-01    5.318925e-01    1.369468e-01
    1.233989e+01    1.728281e+02    2.081089e+00    3.537675e+09    1.155325e-09    7.312570e-13    8.143075e-10    1.218953e-10    6.100000e-01    5.318925e-01    1.435762e-01
    1.185244e+01    1.718377e+02    2.348652e+00    3.757728e+09    1.179021e-09    7.603720e-13    8.471585e-10    1.263019e-10    6.200000e-01    5.318925e-01    1.503829e-01
    1.137976e+01    1.706560e+02    2.637918e+00    3.975240e+09    1.201852e-09    7.883105e-13    8.787810e-10    1.305113e-10    6.300000e-01    5.318925e-01    1.573462e-01
    1.092363e+01    1.693033e+02    2.949078e+00    4.189718e+09    1.223738e-09    8.149695e-13    9.090690e-10    1.345118e-10    6.400000e-01    5.318925e-01    1.644464e-01
    1.048528e+01    1.678004e+02    3.282227e+00    4.400828e+09    1.244614e-09    8.402730e-13    9.379430e-10    1.382960e-10    6.500000e-01    5.318925e-01    1.716652e-01
    1.006553e+01    1.661676e+02    3.637369e+00    4.608373e+09    1.264435e-09    8.641680e-13    9.653500e-10    1.418597e-10    6.600000e-01    5.318925e-01    1.789854e-01
    9.664746e+00    1.644245e+02    4.014433e+00    4.812256e+09    1.283176e-09    8.866240e-13    9.912605e-10    1.452021e-10    6.700000e-01    5.318925e-01    1.863914e-01
    9.283011e+00    1.625896e+02    4.413284e+00    5.012463e+09    1.300827e-09    9.076320e-13    1.015668e-09    1.483255e-10    6.800000e-01    5.318925e-01    1.938692e-01
    8.920124e+00    1.606796e+02    4.833734e+00    5.209041e+09    1.317395e-09    9.272000e-13    1.038584e-09    1.512343e-10    6.900000e-01    5.318925e-01    2.014060e-01
    8.575687e+00    1.587100e+02    5.275550e+00    5.402072e+09    1.332897e-09    9.453520e-13    1.060038e-09    1.539353e-10    7.000000e-01    5.318925e-01    2.089903e-01
    8.249142e+00    1.566946e+02    5.738470e+00    5.591670e+09    1.347360e-09    9.621235e-13    1.080070e-09    1.564364e-10    7.100000e-01    5.318925e-01    2.166121e-01
    7.939832e+00    1.546454e+02    6.222200e+00    5.777962e+09    1.360820e-09    9.775610e-13    1.098735e-09    1.587471e-10    7.200000e-01    5.318925e-01    2.242622e-01
    7.647013e+00    1.525733e+02    6.726430e+00    5.961077e+09    1.373320e-09    9.917190e-13    1.116092e-09    1.608776e-10    7.300000e-01    5.318925e-01    2.319329e-01
    7.369915e+00    1.504876e+02    7.250830e+00    6.141146e+09    1.384908e-09    1.004657e-12    1.132207e-09    1.628386e-10    7.400000e-01    5.318925e-01    2.396171e-01
    7.107725e+00    1.483962e+02    7.795075e+00    6.318301e+09    1.395632e-09    1.016437e-12    1.147152e-09    1.646410e-10    7.500000e-01    5.318925e-01    2.473088e-01
    6.859634e+00    1.463060e+02    8.358820e+00    6.492647e+09    1.405543e-09    1.027125e-12    1.160996e-09    1.662959e-10    7.600000e-01    5.318925e-01    2.550026e-01
    6.624842e+00    1.442227e+02    8.941730e+00    6.664293e+09    1.414696e-09    1.036786e-12    1.173811e-09    1.678140e-10    7.700000e-01    5.318925e-01    2.626939e-01
    6.402578e+00    1.421514e+02    9.543460e+00    6.833344e+09    1.423140e-09    1.045484e-12    1.185671e-09    1.692057e-10    7.800000e-01    5.318925e-01    2.703788e-01
    6.192084e+00    1.400958e+02    1.016367e+01    6.999876e+09    1.430926e-09    1.053283e-12    1.196643e-09    1.704815e-10    7.900000e-01    5.318925e-01    2.780538e-01
    5.992635e+00    1.380593e+02    1.080204e+01    7.163964e+09    1.438104e-09    1.060245e-12    1.206794e-09    1.716505e-10    8.000000e-01    5.318925e-01    2.857159e-01
    5.803557e+00    1.360448e+02    1.145821e+01    7.325683e+09    1.444719e-09    1.066426e-12    1.216189e-09    1.727222e-10    8.100000e-01    5.318925e-01    2.933626e-01
    5.624196e+00    1.340543e+02    1.213190e+01    7.485087e+09    1.450816e-09    1.071882e-12    1.224887e-09    1.737048e-10    8.200000e-01    5.318925e-01    3.009916e-01
    5.453933e+00    1.320895e+02    1.282276e+01    7.642216e+09    1.456438e-09    1.076665e-12    1.232947e-09    1.746062e-10    8.300000e-01    5.318925e-01    3.086013e-01
    5.292203e+00    1.301516e+02    1.353048e+01    7.797125e+09    1.461623e-09    1.080825e-12    1.240421e-09    1.754340e-10    8.400000e-01    5.318925e-01    3.161899e-01
    5.138461e+00    1.282419e+02    1.425478e+01    7.949846e+09    1.466408e-09    1.084404e-12    1.247359e-09    1.761948e-10    8.500000e-01    5.318925e-01    3.237561e-01
    4.992206e+00    1.263608e+02    1.499534e+01    8.100411e+09    1.470828e-09    1.087446e-12    1.253806e-09    1.768947e-10    8.600000e-01    5.318925e-01    3.312988e-01
    4.852967e+00    1.245088e+02    1.575187e+01    8.248851e+09    1.474912e-09    1.089988e-12    1.259805e-09    1.775395e-10    8.700000e-01    5.318925e-01    3.388172e-01
    4.720301e+00    1.226861e+02    1.652411e+01    8.395186e+09    1.478691e-09    1.092066e-12    1.265396e-09    1.781344e-10    8.800000e-01    5.318925e-01    3.463104e-01
    4.593803e+00    1.208929e+02    1.731176e+01    8.539441e+09    1.482191e-09    1.093711e-12    1.270613e-09    1.786841e-10    8.900000e-01    5.318925e-01    3.537778e-01
    4.473092e+00    1.191290e+02    1.811455e+01    8.681633e+09    1.485437e-09    1.094953e-12    1.275491e-09    1.791929e-10    9.000000e-01    5.318925e-01    3.612189e-01
    4.357816e+00    1.173944e+02    1.893222e+01    8.821787e+09    1.488450e-09    1.095818e-12    1.280058e-09    1.796647e-10    9.100000e-01    5.318925e-01    3.686333e-01
    4.247646e+00    1.156889e+02    1.976452e+01    8.959921e+09    1.491251e-09    1.096330e-12    1.284342e-09    1.801030e-10    9.200000e-01    5.318925e-01    3.760207e-01
    4.142271e+00    1.140119e+02    2.061120e+01    9.096042e+09    1.493858e-09    1.096511e-12    1.288368e-09    1.805109e-10    9.300000e-01    5.318925e-01    3.833809e-01
    4.041412e+00    1.123634e+02    2.147199e+01    9.230174e+09    1.496290e-09    1.096380e-12    1.292158e-09    1.808915e-10    9.400000e-01    5.318925e-01    3.907138e-01
    3.944802e+00    1.107427e+02    2.234666e+01    9.362334e+09    1.498559e-09    1.095955e-12    1.295734e-09    1.812472e-10    9.500000e-01    5.318925e-01    3.980191e-01
    3.852198e+00    1.091494e+02    2.323497e+01    9.492537e+09    1.500682e-09    1.095250e-12    1.299113e-09    1.815804e-10    9.600000e-01    5.318925e-01    4.052969e-01
    3.763369e+00    1.075831e+02    2.413669e+01    9.620803e+09    1.502669e-09    1.094280e-12    1.302312e-09    1.818932e-10    9.700000e-01    5.318925e-01    4.125472e-01
    3.678102e+00    1.060434e+02    2.505160e+01    9.747145e+09    1.504534e-09    1.093057e-12    1.305348e-09    1.821875e-10    9.800000e-01    5.318925e-01    4.197701e-01
    3.596197e+00    1.045295e+02    2.597947e+01    9.871576e+09    1.506286e-09    1.091593e-12    1.308232e-09    1.824650e-10    9.900000e-01    5.318925e-01    4.269655e-01
    3.517473e+00    1.030411e+02    2.692008e+01    9.994121e+09    1.507935e-09    1.089896e-12    1.310980e-09    1.827271e-10    1.000000e+00    5.318925e-01    4.341336e-01
    3.441756e+00    1.015777e+02    2.787321e+01    1.011480e+10    1.509489e-09    1.087974e-12    1.313600e-09    1.829754e-10    1.010000e+00    5.318925e-01    4.412746e-01
    3.368886e+00    1.001388e+02    2.883866e+01    1.023363e+10    1.510956e-09    1.085836e-12    1.316105e-09    1.832111e-10    1.020000e+00    5.318925e-01    4.483886e-01
    3.298711e+00    9.872373e+01    2.981622e+01    1.035064e+10    1.512342e-09    1.083486e-12    1.318502e-09    1.834351e-10    1.030000e+00    5.318925e-01    4.554757e-01
    3.231092e+00    9.733221e+01    3.080570e+01    1.046583e+10    1.513655e-09    1.080931e-12    1.320800e-09    1.836486e-10    1.040000e+00    5.318925e-01    4.625361e-01
    3.165898e+00    9.596356e+01    3.180688e+01    1.057923e+10    1.514900e-09    1.078175e-12    1.323009e-09    1.838524e-10    1.050000e+00    5.318925e-01    4.695701e-01
    3.103006e+00    9.461735e+01    3.281958e+01    1.069087e+10    1.516082e-09    1.075221e-12    1.325133e-09    1.840475e-10    1.060000e+00    5.318925e-01    4.765779e-01
    3.042302e+00    9.329313e+01    3.384360e+01    1.080076e+10    1.517207e-09    1.072073e-12    1.327179e-09    1.842344e-10    1.070000e+00    5.318925e-01    4.835597e-01
    2.983676e+00    9.199040e+01    3.487877e+01    1.090892e+10    1.518278e-09    1.068733e-12    1.329154e-09    1.844138e-10    1.080000e+00    5.318925e-01    4.905157e-01
    2.927031e+00    9.070874e+01    3.592488e+01    1.101539e+10    1.519298e-09    1.065202e-12    1.331061e-09    1.845865e-10    1.090000e+00    5.318925e-01    4.974461e-01
    2.872269e+00    8.944762e+01    3.698177e+01    1.112017e+10    1.520273e-09    1.061482e-12    1.332907e-09    1.847527e-10    1.100000e+00    5.318925e-01    5.043513e-01
    2.819304e+00    8.820670e+01    3.804926e+01    1.122330e+10    1.521205e-09    1.057573e-12    1.334695e-09    1.849131e-10    1.110000e+00    5.318925e-01    5.112315e-01
    2.768049e+00    8.698549e+01    3.912716e+01    1.132479e+10    1.522096e-09    1.053476e-12    1.336428e-09    1.850681e-10    1.120000e+00    5.318925e-01    5.180869e-01
    2.718428e+00    8.578357e+01    4.021532e+01    1.142467e+10    1.522950e-09    1.049189e-12    1.338112e-09    1.852181e-10    1.130000e+00    5.318925e-01    5.249177e-01
    2.670367e+00    8.460056e+01    4.131356e+01    1.152297e+10    1.523770e-09    1.044714e-12    1.339748e-09    1.853634e-10    1.140000e+00    5.318925e-01    5.317244e-01
    2.623794e+00    8.343597e+01    4.242171e+01    1.161969e+10    1.524556e-09    1.040047e-12    1.341339e-09    1.855043e-10    1.150000e+00    5.318925e-01    5.385071e-01
    2.578645e+00    8.228953e+01    4.353962e+01    1.171488e+10    1.525312e-09    1.035190e-12    1.342889e-09    1.856412e-10    1.160000e+00    5.318925e-01    5.452660e-01
    2.534858e+00    8.116080e+01    4.466712e+01    1.180854e+10    1.526038e-09    1.030138e-12    1.344400e-09    1.857743e-10    1.170000e+00    5.318925e-01    5.520016e-01
    2.492374e+00    8.004943e+01    4.580406e+01    1.190071e+10    1.526738e-09    1.024890e-12    1.345874e-09    1.859039e-10    1.180000e+00    5.318925e-01    5.587140e-01
    2.451138e+00    7.895505e+01    4.695029e+01    1.199140e+10    1.527412e-09    1.019444e-12    1.347313e-09    1.860301e-10    1.190000e+00    5.318925e-01    5.654034e-01
    2.411098e+00    7.787729e+01    4.810564e+01    1.208064e+10    1.528062e-09    1.013796e-12    1.348720e-09    1.861533e-10    1.200000e+00    5.318925e-01    5.720703e-01
    2.372203e+00    7.681581e+01    4.926998e+01    1.216845e+10    1.528689e-09    1.007945e-12    1.350095e-09    1.862734e-10    1.210000e+00    5.318925e-01    5.787149e-01
    2.334407e+00    7.577030e+01    5.044315e+01    1.225485e+10    1.529294e-09    1.001886e-12    1.351440e-09    1.863909e-10    1.220000e+00    5.318925e-01    5.853373e-01
