# GF180MCU-D nfet_03v3 gm/ID Processed Lookup Table
# Corner: ff
# Temperature: 85C
# W = 2.0 um
# L = 2.5 um (2500 nm)
# Columns: gm/id [1/V]  gm/gds [V/V]  id/W [A/m]  ft [Hz]  Cgg/W [F/m]  Cgd/W [F/m]  Cgs/W [F/m]  Cdb/W [F/m]  vgs [V]  vth [V]  vdsat [V]
# vdsat = BSIM saturation voltage (|VDS|_sat, positive); use for headroom / saturation / cascode-bias calculations
#           gm/id          gm/gds            id/W              ft           Cgg/W           Cgd/W           Cgs/W           Cdb/W             vgs             vth           vdsat
    2.295982e+01    5.394323e+02    8.214930e-05    9.023146e+04    3.326861e-09    1.294489e-15    1.065634e-10    2.280939e-11    1.500000e-01    4.895849e-01    4.685470e-02
    2.295525e+01    5.383238e+02    1.033511e-04    1.135869e+05    3.324215e-09    1.445676e-15    1.200630e-10    2.538042e-11    1.600000e-01    4.895849e-01    4.686718e-02
    2.293522e+01    5.371210e+02    1.300087e-04    1.428168e+05    3.322892e-09    1.614498e-15    1.352258e-10    2.824226e-11    1.700000e-01    4.895849e-01    4.688286e-02
    2.290132e+01    5.358200e+02    1.634979e-04    1.793325e+05    3.323028e-09    1.803031e-15    1.522466e-10    3.142686e-11    1.800000e-01    4.895849e-01    4.690255e-02
    2.285468e+01    5.344187e+02    2.055308e-04    2.248588e+05    3.324775e-09    2.013581e-15    1.713395e-10    3.496910e-11    1.900000e-01    4.895849e-01    4.692724e-02
    2.279613e+01    5.329176e+02    2.582335e-04    2.814956e+05    3.328299e-09    2.248722e-15    1.927393e-10    3.890695e-11    2.000000e-01    4.895849e-01    4.695816e-02
    2.272619e+01    5.313185e+02    3.242420e-04    3.517862e+05    3.333783e-09    2.511314e-15    2.167024e-10    4.328155e-11    2.100000e-01    4.895849e-01    4.699683e-02
    2.264524e+01    5.296288e+02    4.068161e-04    4.387969e+05    3.341425e-09    2.804529e-15    2.435072e-10    4.813729e-11    2.200000e-01    4.895849e-01    4.704513e-02
    2.255354e+01    5.278593e+02    5.099785e-04    5.462041e+05    3.351442e-09    3.131886e-15    2.734550e-10    5.352185e-11    2.300000e-01    4.895849e-01    4.710534e-02
    2.245122e+01    5.260270e+02    6.386815e-04    6.783908e+05    3.364066e-09    3.497272e-15    3.068702e-10    5.948610e-11    2.400000e-01    4.895849e-01    4.718026e-02
    2.233843e+01    5.241553e+02    7.990055e-04    8.405512e+05    3.379547e-09    3.904978e-15    3.440999e-10    6.608400e-11    2.500000e-01    4.895849e-01    4.727328e-02
    2.221535e+01    5.222763e+02    9.983960e-04    1.038804e+06    3.398150e-09    4.359727e-15    3.855134e-10    7.337250e-11    2.600000e-01    4.895849e-01    4.738850e-02
    2.208220e+01    5.204315e+02    1.245946e-03    1.280312e+06    3.420158e-09    4.866704e-15    4.315006e-10    8.141095e-11    2.700000e-01    4.895849e-01    4.753083e-02
    2.193928e+01    5.186724e+02    1.552732e-03    1.573405e+06    3.445866e-09    5.431590e-15    4.824695e-10    9.026085e-11    2.800000e-01    4.895849e-01    4.770615e-02
    2.178702e+01    5.170625e+02    1.932200e-03    1.927714e+06    3.475582e-09    6.060580e-15    5.388435e-10    9.998505e-11    2.900000e-01    4.895849e-01    4.792138e-02
    2.162593e+01    5.156763e+02    2.400641e-03    2.354301e+06    3.509622e-09    6.760425e-15    6.010560e-10    1.106470e-10    3.000000e-01    4.895849e-01    4.818468e-02
    2.145663e+01    5.146009e+02    2.977726e-03    2.865796e+06    3.548305e-09    7.538430e-15    6.695455e-10    1.223094e-10    3.100000e-01    4.895849e-01    4.850550e-02
    2.127975e+01    5.139331e+02    3.687144e-03    3.476531e+06    3.591953e-09    8.402495e-15    7.447465e-10    1.350334e-10    3.200000e-01    4.895849e-01    4.889473e-02
    2.109587e+01    5.137771e+02    4.557345e-03    4.202654e+06    3.640875e-09    9.361105e-15    8.270830e-10    1.488766e-10    3.300000e-01    4.895849e-01    4.936471e-02
    2.090543e+01    5.142426e+02    5.622390e-03    5.062237e+06    3.695369e-09    1.042334e-14    9.169545e-10    1.638915e-10    3.400000e-01    4.895849e-01    4.992933e-02
    2.070865e+01    5.154390e+02    6.922910e-03    6.075317e+06    3.755708e-09    1.159886e-14    1.014727e-09    1.801232e-10    3.500000e-01    4.895849e-01    5.060389e-02
    2.050524e+01    5.174687e+02    8.507225e-03    7.263862e+06    3.822129e-09    1.289789e-14    1.120714e-09    1.976078e-10    3.600000e-01    4.895849e-01    5.140504e-02
    2.029446e+01    5.204207e+02    1.043249e-02    8.651624e+06    3.894825e-09    1.433118e-14    1.235168e-09    2.163692e-10    3.700000e-01    4.895849e-01    5.235054e-02
    2.007490e+01    5.243621e+02    1.276598e-02    1.026378e+07    3.973932e-09    1.590996e-14    1.358258e-09    2.364175e-10    3.800000e-01    4.895849e-01    5.345897e-02
    1.984454e+01    5.293306e+02    1.558634e-02    1.212638e+07    4.059516e-09    1.764586e-14    1.490056e-09    2.577465e-10    3.900000e-01    4.895849e-01    5.474930e-02
    1.960077e+01    5.353284e+02    1.898477e-02    1.426550e+07    4.151564e-09    1.955085e-14    1.630525e-09    2.803313e-10    4.000000e-01    4.895849e-01    5.624041e-02
    1.934055e+01    5.423152e+02    2.306607e-02    1.670616e+07    4.249970e-09    2.163712e-14    1.779496e-09    3.041268e-10    4.100000e-01    4.895849e-01    5.795055e-02
    1.906072e+01    5.502082e+02    2.794923e-02    1.947098e+07    4.354532e-09    2.391697e-14    1.936667e-09    3.290667e-10    4.200000e-01    4.895849e-01    5.989671e-02
    1.875828e+01    5.588823e+02    3.376781e-02    2.257877e+07    4.464941e-09    2.640273e-14    2.101589e-09    3.550623e-10    4.300000e-01    4.895849e-01    6.209406e-02
    1.843074e+01    5.681737e+02    4.066948e-02    2.604307e+07    4.580779e-09    2.910654e-14    2.273664e-09    3.820033e-10    4.400000e-01    4.895849e-01    6.455540e-02
    1.807647e+01    5.778887e+02    4.881508e-02    2.987097e+07    4.701523e-09    3.204030e-14    2.452152e-09    4.097585e-10    4.500000e-01    4.895849e-01    6.729070e-02
    1.769493e+01    5.878140e+02    5.837700e-02    3.406229e+07    4.826552e-09    3.521548e-14    2.636171e-09    4.381779e-10    4.600000e-01    4.895849e-01    7.030679e-02
    1.728680e+01    5.977282e+02    6.953670e-02    3.860929e+07    4.955151e-09    3.864298e-14    2.824723e-09    4.670962e-10    4.700000e-01    4.895849e-01    7.360718e-02
    1.685393e+01    6.074133e+02    8.248195e-02    4.349689e+07    5.086535e-09    4.233304e-14    3.016706e-09    4.963352e-10    4.800000e-01    4.895849e-01    7.719199e-02
    1.639925e+01    6.166671e+02    9.740370e-02    4.870360e+07    5.219855e-09    4.629511e-14    3.210946e-09    5.257095e-10    4.900000e-01    4.895849e-01    8.105816e-02
    1.592655e+01    6.253108e+02    1.144924e-01    5.420277e+07    5.354230e-09    5.053780e-14    3.406221e-09    5.550310e-10    5.000000e-01    4.895849e-01    8.519963e-02
    1.544020e+01    6.331967e+02    1.339348e-01    5.996413e+07    5.488770e-09    5.506865e-14    3.601298e-09    5.841125e-10    5.100000e-01    4.895849e-01    8.960776e-02
    1.494483e+01    6.402107e+02    1.559110e-01    6.595550e+07    5.622595e-09    5.989445e-14    3.794963e-09    6.127745e-10    5.200000e-01    4.895849e-01    9.427176e-02
    1.444508e+01    6.462745e+02    1.805916e-01    7.214462e+07    5.754845e-09    6.502080e-14    3.986052e-09    6.408490e-10    5.300000e-01    4.895849e-01    9.917913e-02
    1.394538e+01    6.513422e+02    2.081356e-01    7.850008e+07    5.884735e-09    7.045245e-14    4.173480e-09    6.681820e-10    5.400000e-01    4.895849e-01    1.043162e-01
    1.344977e+01    6.553989e+02    2.386891e-01    8.499287e+07    6.011530e-09    7.619315e-14    4.356262e-09    6.946390e-10    5.500000e-01    4.895849e-01    1.096684e-01
    1.296177e+01    6.584547e+02    2.723839e-01    9.159675e+07    6.134595e-09    8.224585e-14    4.533534e-09    7.201045e-10    5.600000e-01    4.895849e-01    1.152210e-01
    1.248436e+01    6.605422e+02    3.093378e-01    9.828873e+07    6.253390e-09    8.861265e-14    4.704566e-09    7.444855e-10    5.700000e-01    4.895849e-01    1.209591e-01
    1.201992e+01    6.617076e+02    3.496540e-01    1.050496e+08    6.367455e-09    9.529505e-14    4.868764e-09    7.677110e-10    5.800000e-01    4.895849e-01    1.268680e-01
    1.157030e+01    6.620106e+02    3.934220e-01    1.118630e+08    6.476450e-09    1.022938e-13    5.025675e-09    7.897310e-10    5.900000e-01    4.895849e-01    1.329337e-01
    1.113685e+01    6.615169e+02    4.407180e-01    1.187160e+08    6.580125e-09    1.096094e-13    5.174985e-09    8.105160e-10    6.000000e-01    4.895849e-01    1.391427e-01
    1.072045e+01    6.602962e+02    4.916060e-01    1.255980e+08    6.678330e-09    1.172419e-13    5.316500e-09    8.300555e-10    6.100000e-01    4.895849e-01    1.454823e-01
    1.032162e+01    6.584193e+02    5.461390e-01    1.325012e+08    6.770980e-09    1.251909e-13    5.450150e-09    8.483550e-10    6.200000e-01    4.895849e-01    1.519406e-01
    9.940540e+00    6.559557e+02    6.043600e-01    1.394192e+08    6.858090e-09    1.334563e-13    5.575965e-09    8.654345e-10    6.300000e-01    4.895849e-01    1.585064e-01
    9.577137e+00    6.529723e+02    6.663025e-01    1.463474e+08    6.939725e-09    1.420373e-13    5.694065e-09    8.813270e-10    6.400000e-01    4.895849e-01    1.651698e-01
    9.231140e+00    6.495329e+02    7.319930e-01    1.532824e+08    7.016010e-09    1.509337e-13    5.804635e-09    8.960735e-10    6.500000e-01    4.895849e-01    1.719214e-01
    8.902122e+00    6.456959e+02    8.014505e-01    1.602216e+08    7.087110e-09    1.601452e-13    5.907935e-09    9.097245e-10    6.600000e-01    4.895849e-01    1.787526e-01
    8.589527e+00    6.415156e+02    8.746890e-01    1.671633e+08    7.153230e-09    1.696715e-13    6.004265e-09    9.223335e-10    6.700000e-01    4.895849e-01    1.856559e-01
    8.292747e+00    6.370413e+02    9.517160e-01    1.741060e+08    7.214600e-09    1.795128e-13    6.093950e-09    9.339600e-10    6.800000e-01    4.895849e-01    1.926241e-01
    8.011087e+00    6.323170e+02    1.032536e+00    1.810486e+08    7.271465e-09    1.896693e-13    6.177350e-09    9.446640e-10    6.900000e-01    4.895849e-01    1.996510e-01
    7.743854e+00    6.273830e+02    1.117151e+00    1.879905e+08    7.324080e-09    2.001418e-13    6.254830e-09    9.545060e-10    7.000000e-01    4.895849e-01    2.067310e-01
    7.490316e+00    6.222742e+02    1.205556e+00    1.949307e+08    7.372715e-09    2.109311e-13    6.326770e-09    9.635470e-10    7.100000e-01    4.895849e-01    2.138589e-01
    7.249760e+00    6.170227e+02    1.297749e+00    2.018690e+08    7.417620e-09    2.220386e-13    6.393530e-09    9.718465e-10    7.200000e-01    4.895849e-01    2.210302e-01
    7.021476e+00    6.116552e+02    1.393720e+00    2.088046e+08    7.459060e-09    2.334661e-13    6.455485e-09    9.794620e-10    7.300000e-01    4.895849e-01    2.282407e-01
    6.804772e+00    6.061958e+02    1.493464e+00    2.157370e+08    7.497285e-09    2.452154e-13    6.512980e-09    9.864480e-10    7.400000e-01    4.895849e-01    2.354869e-01
    6.598983e+00    6.006662e+02    1.596971e+00    2.226656e+08    7.532535e-09    2.572893e-13    6.566355e-09    9.928560e-10    7.500000e-01    4.895849e-01    2.427653e-01
    6.403472e+00    5.950840e+02    1.704229e+00    2.295896e+08    7.565040e-09    2.696904e-13    6.615935e-09    9.987360e-10    7.600000e-01    4.895849e-01    2.500732e-01
    6.217629e+00    5.894648e+02    1.815227e+00    2.365087e+08    7.595015e-09    2.824222e-13    6.662025e-09    1.004134e-09    7.700000e-01    4.895849e-01    2.574079e-01
    6.040879e+00    5.838226e+02    1.929952e+00    2.434221e+08    7.622665e-09    2.954882e-13    6.704905e-09    1.009091e-09    7.800000e-01    4.895849e-01    2.647671e-01
    5.872676e+00    5.781689e+02    2.048394e+00    2.503289e+08    7.648190e-09    3.088924e-13    6.744845e-09    1.013648e-09    7.900000e-01    4.895849e-01    2.721486e-01
    5.712500e+00    5.725130e+02    2.170539e+00    2.572286e+08    7.671755e-09    3.226393e-13    6.782095e-09    1.017841e-09    8.000000e-01    4.895849e-01    2.795506e-01
    5.559873e+00    5.668637e+02    2.296374e+00    2.641202e+08    7.693535e-09    3.367337e-13    6.816885e-09    1.021703e-09    8.100000e-01    4.895849e-01    2.869714e-01
    5.414337e+00    5.612279e+02    2.425885e+00    2.710030e+08    7.713680e-09    3.511806e-13    6.849425e-09    1.025266e-09    8.200000e-01    4.895849e-01    2.944096e-01
    5.275468e+00    5.556115e+02    2.559060e+00    2.778761e+08    7.732330e-09    3.659859e-13    6.879905e-09    1.028556e-09    8.300000e-01    4.895849e-01    3.018638e-01
    5.142870e+00    5.500196e+02    2.695885e+00    2.847389e+08    7.749615e-09    3.811553e-13    6.908515e-09    1.031599e-09    8.400000e-01    4.895849e-01    3.093328e-01
    5.016165e+00    5.444560e+02    2.836347e+00    2.915906e+08    7.765650e-09    3.966951e-13    6.935410e-09    1.034419e-09    8.500000e-01    4.895849e-01    3.168156e-01
    4.895010e+00    5.389243e+02    2.980432e+00    2.984301e+08    7.780550e-09    4.126120e-13    6.960740e-09    1.037037e-09    8.600000e-01    4.895849e-01    3.243112e-01
    4.779079e+00    5.334271e+02    3.128127e+00    3.052569e+08    7.794410e-09    4.289129e-13    6.984645e-09    1.039471e-09    8.700000e-01    4.895849e-01    3.318187e-01
    4.668068e+00    5.279669e+02    3.279419e+00    3.120701e+08    7.807320e-09    4.456051e-13    7.007250e-09    1.041739e-09    8.800000e-01    4.895849e-01    3.393374e-01
    4.561695e+00    5.225451e+02    3.434294e+00    3.188692e+08    7.819360e-09    4.626965e-13    7.028660e-09    1.043856e-09    8.900000e-01    4.895849e-01    3.468666e-01
    4.459695e+00    5.171631e+02    3.592738e+00    3.256531e+08    7.830610e-09    4.801950e-13    7.048985e-09    1.045837e-09    9.000000e-01    4.895849e-01    3.544056e-01
    4.361821e+00    5.118221e+02    3.754739e+00    3.324215e+08    7.841130e-09    4.981091e-13    7.068315e-09    1.047694e-09    9.100000e-01    4.895849e-01    3.619540e-01
    4.267845e+00    5.065227e+02    3.920283e+00    3.391734e+08    7.850990e-09    5.164475e-13    7.086740e-09    1.049438e-09    9.200000e-01    4.895849e-01    3.695111e-01
    4.177551e+00    5.012656e+02    4.089358e+00    3.459082e+08    7.860245e-09    5.352190e-13    7.104330e-09    1.051081e-09    9.300000e-01    4.895849e-01    3.770766e-01
    4.090738e+00    4.960509e+02    4.261948e+00    3.526255e+08    7.868940e-09    5.544335e-13    7.121155e-09    1.052630e-09    9.400000e-01    4.895849e-01    3.846500e-01
    4.007220e+00    4.908790e+02    4.438043e+00    3.593247e+08    7.877125e-09    5.741005e-13    7.137285e-09    1.054095e-09    9.500000e-01    4.895849e-01    3.922310e-01
    3.926821e+00    4.857499e+02    4.617628e+00    3.660050e+08    7.884845e-09    5.942300e-13    7.152770e-09    1.055483e-09    9.600000e-01    4.895849e-01    3.998193e-01
    3.849378e+00    4.806633e+02    4.800691e+00    3.726663e+08    7.892130e-09    6.148325e-13    7.167660e-09    1.056800e-09    9.700000e-01    4.895849e-01    4.074145e-01
    3.774736e+00    4.756193e+02    4.987217e+00    3.793078e+08    7.899020e-09    6.359195e-13    7.182010e-09    1.058054e-09    9.800000e-01    4.895849e-01    4.150163e-01
    3.702753e+00    4.706173e+02    5.177195e+00    3.859292e+08    7.905545e-09    6.575015e-13    7.195855e-09    1.059249e-09    9.900000e-01    4.895849e-01    4.226246e-01
    3.633296e+00    4.656573e+02    5.370610e+00    3.925302e+08    7.911730e-09    6.795905e-13    7.209240e-09    1.060389e-09    1.000000e+00    4.895849e-01    4.302391e-01
    3.566237e+00    4.607388e+02    5.567450e+00    3.991102e+08    7.917605e-09    7.021985e-13    7.222195e-09    1.061482e-09    1.010000e+00    4.895849e-01    4.378596e-01
    3.501459e+00    4.558614e+02    5.767700e+00    4.056687e+08    7.923195e-09    7.253375e-13    7.234755e-09    1.062528e-09    1.020000e+00    4.895849e-01    4.454860e-01
    3.438848e+00    4.510246e+02    5.971355e+00    4.122058e+08    7.928515e-09    7.490205e-13    7.246945e-09    1.063534e-09    1.030000e+00    4.895849e-01    4.531180e-01
    3.378305e+00    4.462279e+02    6.178390e+00    4.187211e+08    7.933585e-09    7.732605e-13    7.258795e-09    1.064500e-09    1.040000e+00    4.895849e-01    4.607556e-01
    3.319729e+00    4.414710e+02    6.388800e+00    4.252139e+08    7.938430e-09    7.980715e-13    7.270330e-09    1.065432e-09    1.050000e+00    4.895849e-01    4.683985e-01
    3.263031e+00    4.367531e+02    6.602565e+00    4.316842e+08    7.943060e-09    8.234670e-13    7.281565e-09    1.066331e-09    1.060000e+00    4.895849e-01    4.760467e-01
    3.208121e+00    4.320738e+02    6.819680e+00    4.381322e+08    7.947485e-09    8.494620e-13    7.292525e-09    1.067200e-09    1.070000e+00    4.895849e-01    4.837001e-01
    3.154918e+00    4.274328e+02    7.040130e+00    4.445568e+08    7.951730e-09    8.760705e-13    7.303225e-09    1.068040e-09    1.080000e+00    4.895849e-01    4.913586e-01
    3.103347e+00    4.228293e+02    7.263900e+00    4.509587e+08    7.955795e-09    9.033085e-13    7.313685e-09    1.068854e-09    1.090000e+00    4.895849e-01    4.990221e-01
    3.053336e+00    4.182627e+02    7.490975e+00    4.573371e+08    7.959700e-09    9.311915e-13    7.323920e-09    1.069644e-09    1.100000e+00    4.895849e-01    5.066906e-01
    3.004815e+00    4.137326e+02    7.721345e+00    4.636920e+08    7.963450e-09    9.597360e-13    7.333940e-09    1.070412e-09    1.110000e+00    4.895849e-01    5.143639e-01
    2.957720e+00    4.092384e+02    7.954995e+00    4.700232e+08    7.967055e-09    9.889585e-13    7.343755e-09    1.071158e-09    1.120000e+00    4.895849e-01    5.220420e-01
    2.911992e+00    4.047797e+02    8.191910e+00    4.763308e+08    7.970525e-09    1.018876e-12    7.353385e-09    1.071884e-09    1.130000e+00    4.895849e-01    5.297248e-01
    2.867570e+00    4.003559e+02    8.432085e+00    4.826144e+08    7.973865e-09    1.049508e-12    7.362835e-09    1.072592e-09    1.140000e+00    4.895849e-01    5.374124e-01
    2.824401e+00    3.959667e+02    8.675500e+00    4.888739e+08    7.977085e-09    1.080870e-12    7.372115e-09    1.073282e-09    1.150000e+00    4.895849e-01    5.451047e-01
    2.782436e+00    3.916110e+02    8.922140e+00    4.951090e+08    7.980195e-09    1.112983e-12    7.381235e-09    1.073956e-09    1.160000e+00    4.895849e-01    5.528016e-01
    2.741621e+00    3.872889e+02    9.172000e+00    5.013201e+08    7.983190e-09    1.145866e-12    7.390200e-09    1.074614e-09    1.170000e+00    4.895849e-01    5.605032e-01
    2.701914e+00    3.829996e+02    9.425060e+00    5.075067e+08    7.986085e-09    1.179539e-12    7.399025e-09    1.075257e-09    1.180000e+00    4.895849e-01    5.682093e-01
    2.663269e+00    3.787427e+02    9.681310e+00    5.136687e+08    7.988885e-09    1.214022e-12    7.407705e-09    1.075886e-09    1.190000e+00    4.895849e-01    5.759201e-01
    2.625645e+00    3.745178e+02    9.940735e+00    5.198062e+08    7.991590e-09    1.249337e-12    7.416260e-09    1.076503e-09    1.200000e+00    4.895849e-01    5.836354e-01
    2.589003e+00    3.703241e+02    1.020332e+01    5.259190e+08    7.994205e-09    1.285506e-12    7.424690e-09    1.077106e-09    1.210000e+00    4.895849e-01    5.913553e-01
    2.553303e+00    3.661615e+02    1.046906e+01    5.320072e+08    7.996735e-09    1.322550e-12    7.432995e-09    1.077698e-09    1.220000e+00    4.895849e-01    5.990798e-01
    2.518514e+00    3.620295e+02    1.073793e+01    5.380706e+08    7.999185e-09    1.360494e-12    7.441190e-09    1.078278e-09    1.230000e+00    4.895849e-01    6.068088e-01
