# GF180MCU-D nfet_03v3 gm/ID Processed Lookup Table
# Corner: ff
# Temperature: 85C
# W = 2.0 um
# L = 4 um (4000 nm)
# Columns: gm/id [1/V]  gm/gds [V/V]  id/W [A/m]  ft [Hz]  Cgg/W [F/m]  Cgd/W [F/m]  Cgs/W [F/m]  Cdb/W [F/m]  vgs [V]  vth [V]  vdsat [V]
# vdsat = BSIM saturation voltage (|VDS|_sat, positive); use for headroom / saturation / cascode-bias calculations
#           gm/id          gm/gds            id/W              ft           Cgg/W           Cgd/W           Cgs/W           Cdb/W             vgs             vth           vdsat
    2.283141e+01    6.675974e+02    7.409340e-05    5.014305e+04    5.369350e-09    2.663196e-15    2.261003e-10    4.719993e-11    1.600000e-01    4.831945e-01    4.501971e-02
    2.282082e+01    6.659919e+02    9.309365e-05    6.296318e+04    5.370130e-09    2.972869e-15    2.543461e-10    5.249985e-11    1.700000e-01    4.831945e-01    4.503800e-02
    2.279285e+01    6.642619e+02    1.169435e-04    7.894654e+04    5.373555e-09    3.318555e-15    2.860096e-10    5.839145e-11    1.800000e-01    4.831945e-01    4.506094e-02
    2.274923e+01    6.624073e+02    1.468508e-04    9.883011e+04    5.379895e-09    3.704434e-15    3.214737e-10    6.493680e-11    1.900000e-01    4.831945e-01    4.508967e-02
    2.269129e+01    6.604309e+02    1.843127e-04    1.235065e+05    5.389450e-09    4.135152e-15    3.611561e-10    7.220320e-11    2.000000e-01    4.831945e-01    4.512561e-02
    2.261995e+01    6.583407e+02    2.311816e-04    1.540519e+05    5.402540e-09    4.615861e-15    4.055097e-10    8.026305e-11    2.100000e-01    4.831945e-01    4.517051e-02
    2.253595e+01    6.561498e+02    2.897435e-04    1.917563e+05    5.419510e-09    5.152260e-15    4.550236e-10    8.919390e-11    2.200000e-01    4.831945e-01    4.522648e-02
    2.243983e+01    6.538788e+02    3.628131e-04    2.381575e+05    5.440745e-09    5.750645e-15    5.102235e-10    9.907855e-11    2.300000e-01    4.831945e-01    4.529615e-02
    2.233204e+01    6.515573e+02    4.538468e-04    2.950781e+05    5.466645e-09    6.417955e-15    5.716705e-10    1.100045e-10    2.400000e-01    4.831945e-01    4.538266e-02
    2.221295e+01    6.492230e+02    5.670780e-04    3.646643e+05    5.497635e-09    7.161820e-15    6.399610e-10    1.220637e-10    2.500000e-01    4.831945e-01    4.548983e-02
    2.208300e+01    6.469278e+02    7.076770e-04    4.494287e+05    5.534170e-09    7.990615e-15    7.157220e-10    1.353523e-10    2.600000e-01    4.831945e-01    4.562226e-02
    2.194260e+01    6.447350e+02    8.819430e-04    5.522930e+05    5.576725e-09    8.913485e-15    7.996095e-10    1.499688e-10    2.700000e-01    4.831945e-01    4.578542e-02
    2.179233e+01    6.427229e+02    1.097525e-03    6.766350e+05    5.625790e-09    9.940415e-15    8.923010e-10    1.660143e-10    2.800000e-01    4.831945e-01    4.598578e-02
    2.163277e+01    6.409844e+02    1.363688e-03    8.263346e+05    5.681870e-09    1.108225e-14    9.944880e-10    1.835899e-10    2.900000e-01    4.831945e-01    4.623096e-02
    2.146459e+01    6.396265e+02    1.691625e-03    1.005822e+06    5.745470e-09    1.235072e-14    1.106867e-09    2.027956e-10    3.000000e-01    4.831945e-01    4.652979e-02
    2.128853e+01    6.387704e+02    2.094812e-03    1.220126e+06    5.817095e-09    1.375848e-14    1.230125e-09    2.237278e-10    3.100000e-01    4.831945e-01    4.689247e-02
    2.110524e+01    6.385472e+02    2.589438e-03    1.474916e+06    5.897235e-09    1.531912e-14    1.364930e-09    2.464768e-10    3.200000e-01    4.831945e-01    4.733056e-02
    2.091524e+01    6.390954e+02    3.194886e-03    1.776545e+06    5.986350e-09    1.704715e-14    1.511904e-09    2.711242e-10    3.300000e-01    4.831945e-01    4.785707e-02
    2.071879e+01    6.405534e+02    3.934285e-03    2.132061e+06    6.084865e-09    1.895800e-14    1.671612e-09    2.977390e-10    3.400000e-01    4.831945e-01    4.848638e-02
    2.051578e+01    6.430533e+02    4.835141e-03    2.549213e+06    6.193145e-09    2.106793e-14    1.844534e-09    3.263747e-10    3.500000e-01    4.831945e-01    4.923415e-02
    2.030552e+01    6.467113e+02    5.930010e-03    3.036404e+06    6.311465e-09    2.339404e-14    2.031041e-09    3.570654e-10    3.600000e-01    4.831945e-01    5.011710e-02
    2.008679e+01    6.516192e+02    7.257225e-03    3.602578e+06    6.440030e-09    2.595416e-14    2.231373e-09    3.898217e-10    3.700000e-01    4.831945e-01    5.115278e-02
    1.985767e+01    6.578331e+02    8.861635e-03    4.257045e+06    6.578910e-09    2.876671e-14    2.445609e-09    4.246275e-10    3.800000e-01    4.831945e-01    5.235915e-02
    1.961566e+01    6.653662e+02    1.079531e-02    5.009196e+06    6.728065e-09    3.185060e-14    2.673646e-09    4.614367e-10    3.900000e-01    4.831945e-01    5.375414e-02
    1.935786e+01    6.741821e+02    1.311814e-02    5.868156e+06    6.887285e-09    3.522506e-14    2.915177e-09    5.001705e-10    4.000000e-01    4.831945e-01    5.535514e-02
    1.908117e+01    6.841909e+02    1.589827e-02    6.842308e+06    7.056225e-09    3.890948e-14    3.169675e-09    5.407160e-10    4.100000e-01    4.831945e-01    5.717845e-02
    1.878264e+01    6.952514e+02    1.921230e-02    7.938826e+06    7.234355e-09    4.292318e-14    3.436379e-09    5.829250e-10    4.200000e-01    4.831945e-01    5.923873e-02
    1.845978e+01    7.071724e+02    2.314516e-02    9.163153e+06    7.420990e-09    4.728520e-14    3.714297e-09    6.266140e-10    4.300000e-01    4.831945e-01    6.154848e-02
    1.811090e+01    7.197270e+02    2.778963e-02    1.051860e+07    7.615260e-09    5.201415e-14    4.002208e-09    6.715680e-10    4.400000e-01    4.831945e-01    6.411763e-02
    1.773536e+01    7.326606e+02    3.324544e-02    1.200602e+07    7.816160e-09    5.712780e-14    4.298678e-09    7.175430e-10    4.500000e-01    4.831945e-01    6.695321e-02
    1.733369e+01    7.457037e+02    3.961809e-02    1.362363e+07    8.022535e-09    6.264325e-14    4.602088e-09    7.642700e-10    4.600000e-01    4.831945e-01    7.005916e-02
    1.690759e+01    7.585911e+02    4.701716e-02    1.536718e+07    8.233115e-09    6.857625e-14    4.910664e-09    8.114625e-10    4.700000e-01    4.831945e-01    7.343631e-02
    1.645982e+01    7.710717e+02    5.555470e-02    1.723007e+07    8.446545e-09    7.494145e-14    5.222525e-09    8.588220e-10    4.800000e-01    4.831945e-01    7.708248e-02
    1.599402e+01    7.829194e+02    6.534305e-02    1.920381e+07    8.661435e-09    8.175210e-14    5.535720e-09    9.060480e-10    4.900000e-01    4.831945e-01    8.099271e-02
    1.551437e+01    7.939452e+02    7.649335e-02    2.127860e+07    8.876360e-09    8.901980e-14    5.848300e-09    9.528435e-10    5.000000e-01    4.831945e-01    8.515957e-02
    1.502537e+01    8.039973e+02    8.911340e-02    2.344380e+07    9.089925e-09    9.675480e-14    6.158335e-09    9.989235e-10    5.100000e-01    4.831945e-01    8.957357e-02
    1.453156e+01    8.129652e+02    1.033061e-01    2.568848e+07    9.300800e-09    1.049658e-13    6.464000e-09    1.044022e-09    5.200000e-01    4.831945e-01    9.422359e-02
    1.403729e+01    8.207789e+02    1.191688e-01    2.800196e+07    9.507740e-09    1.136597e-13    6.763585e-09    1.087898e-09    5.300000e-01    4.831945e-01    9.909727e-02
    1.354650e+01    8.274035e+02    1.367912e-01    3.037414e+07    9.709605e-09    1.228424e-13    7.055555e-09    1.130340e-09    5.400000e-01    4.831945e-01    1.041815e-01
    1.306272e+01    8.328370e+02    1.562560e-01    3.279576e+07    9.905410e-09    1.325181e-13    7.338565e-09    1.171168e-09    5.500000e-01    4.831945e-01    1.094627e-01
    1.258888e+01    8.371029e+02    1.776374e-01    3.525862e+07    1.009430e-08    1.426899e-13    7.611485e-09    1.210239e-09    5.600000e-01    4.831945e-01    1.149273e-01
    1.212739e+01    8.402451e+02    2.010020e-01    3.775556e+07    1.027560e-08    1.533599e-13    7.873395e-09    1.247442e-09    5.700000e-01    4.831945e-01    1.205616e-01
    1.168012e+01    8.423226e+02    2.264084e-01    4.028051e+07    1.044876e-08    1.645292e-13    8.123610e-09    1.282703e-09    5.800000e-01    4.831945e-01    1.263527e-01
    1.124843e+01    8.434051e+02    2.539074e-01    4.282844e+07    1.061342e-08    1.761983e-13    8.361645e-09    1.315976e-09    5.900000e-01    4.831945e-01    1.322879e-01
    1.083325e+01    8.435679e+02    2.835432e-01    4.539511e+07    1.076934e-08    1.883670e-13    8.587225e-09    1.347251e-09    6.000000e-01    4.831945e-01    1.383552e-01
    1.043514e+01    8.428896e+02    3.153529e-01    4.797718e+07    1.091643e-08    2.010348e-13    8.800250e-09    1.376537e-09    6.100000e-01    4.831945e-01    1.445435e-01
    1.005433e+01    8.414485e+02    3.493678e-01    5.057192e+07    1.105469e-08    2.142010e-13    9.000790e-09    1.403869e-09    6.200000e-01    4.831945e-01    1.508423e-01
    9.690790e+00    8.393215e+02    3.856139e-01    5.317711e+07    1.118426e-08    2.278647e-13    9.189035e-09    1.429301e-09    6.300000e-01    4.831945e-01    1.572419e-01
    9.344307e+00    8.365823e+02    4.241122e-01    5.579108e+07    1.130533e-08    2.420252e-13    9.365315e-09    1.452901e-09    6.400000e-01    4.831945e-01    1.637333e-01
    9.014487e+00    8.332996e+02    4.648796e-01    5.841236e+07    1.141818e-08    2.566819e-13    9.530030e-09    1.474749e-09    6.500000e-01    4.831945e-01    1.703084e-01
    8.700836e+00    8.295391e+02    5.079290e-01    6.103988e+07    1.152313e-08    2.718344e-13    9.683665e-09    1.494932e-09    6.600000e-01    4.831945e-01    1.769596e-01
    8.402766e+00    8.253595e+02    5.532705e-01    6.367269e+07    1.162055e-08    2.874828e-13    9.826750e-09    1.513545e-09    6.700000e-01    4.831945e-01    1.836803e-01
    8.119641e+00    8.208161e+02    6.009110e-01    6.631006e+07    1.171083e-08    3.036274e-13    9.959850e-09    1.530684e-09    6.800000e-01    4.831945e-01    1.904642e-01
    7.850783e+00    8.159567e+02    6.508555e-01    6.895131e+07    1.179438e-08    3.202692e-13    1.008355e-08    1.546447e-09    6.900000e-01    4.831945e-01    1.973057e-01
    7.595512e+00    8.108274e+02    7.031060e-01    7.159590e+07    1.187162e-08    3.374097e-13    1.019844e-08    1.560931e-09    7.000000e-01    4.831945e-01    2.041999e-01
    7.353123e+00    8.054673e+02    7.576645e-01    7.424333e+07    1.194295e-08    3.550507e-13    1.030513e-08    1.574230e-09    7.100000e-01    4.831945e-01    2.111420e-01
    7.122942e+00    7.999120e+02    8.145300e-01    7.689313e+07    1.200879e-08    3.731950e-13    1.040416e-08    1.586435e-09    7.200000e-01    4.831945e-01    2.181281e-01
    6.904301e+00    7.941933e+02    8.737010e-01    7.954490e+07    1.206953e-08    3.918456e-13    1.049613e-08    1.597635e-09    7.300000e-01    4.831945e-01    2.251545e-01
    6.696558e+00    7.883384e+02    9.351745e-01    8.219829e+07    1.212556e-08    4.110064e-13    1.058154e-08    1.607912e-09    7.400000e-01    4.831945e-01    2.322178e-01
    6.499069e+00    7.823714e+02    9.989485e-01    8.485274e+07    1.217723e-08    4.306818e-13    1.066092e-08    1.617343e-09    7.500000e-01    4.831945e-01    2.393151e-01
    6.311260e+00    7.763152e+02    1.065018e+00    8.750804e+07    1.222489e-08    4.508767e-13    1.073476e-08    1.626004e-09    7.600000e-01    4.831945e-01    2.464437e-01
    6.132556e+00    7.701870e+02    1.133379e+00    9.016377e+07    1.226888e-08    4.715967e-13    1.080350e-08    1.633960e-09    7.700000e-01    4.831945e-01    2.536013e-01
    5.962423e+00    7.640037e+02    1.204027e+00    9.281954e+07    1.230948e-08    4.928482e-13    1.086756e-08    1.641277e-09    7.800000e-01    4.831945e-01    2.607856e-01
    5.800355e+00    7.577796e+02    1.276955e+00    9.547505e+07    1.234697e-08    5.146380e-13    1.092735e-08    1.648009e-09    7.900000e-01    4.831945e-01    2.679947e-01
    5.645872e+00    7.515267e+02    1.352161e+00    9.812991e+07    1.238164e-08    5.369730e-13    1.098321e-08    1.654213e-09    8.000000e-01    4.831945e-01    2.752270e-01
    5.498522e+00    7.452549e+02    1.429636e+00    1.007837e+08    1.241370e-08    5.598620e-13    1.103549e-08    1.659935e-09    8.100000e-01    4.831945e-01    2.824809e-01
    5.357890e+00    7.389737e+02    1.509376e+00    1.034362e+08    1.244339e-08    5.833135e-13    1.108451e-08    1.665223e-09    8.200000e-01    4.831945e-01    2.897550e-01
    5.223577e+00    7.326914e+02    1.591375e+00    1.060871e+08    1.247091e-08    6.073360e-13    1.113053e-08    1.670114e-09    8.300000e-01    4.831945e-01    2.970480e-01
    5.095208e+00    7.264130e+02    1.675628e+00    1.087359e+08    1.249645e-08    6.319395e-13    1.117383e-08    1.674647e-09    8.400000e-01    4.831945e-01    3.043588e-01
    4.972444e+00    7.201455e+02    1.762127e+00    1.113824e+08    1.252018e-08    6.571345e-13    1.121464e-08    1.678856e-09    8.500000e-01    4.831945e-01    3.116864e-01
    4.854957e+00    7.138934e+02    1.850867e+00    1.140264e+08    1.254225e-08    6.829320e-13    1.125317e-08    1.682770e-09    8.600000e-01    4.831945e-01    3.190300e-01
    4.742443e+00    7.076596e+02    1.941842e+00    1.166673e+08    1.256282e-08    7.093425e-13    1.128962e-08    1.686417e-09    8.700000e-01    4.831945e-01    3.263886e-01
    4.634620e+00    7.014482e+02    2.035046e+00    1.193051e+08    1.258200e-08    7.363785e-13    1.132418e-08    1.689822e-09    8.800000e-01    4.831945e-01    3.337616e-01
    4.531224e+00    6.952620e+02    2.130473e+00    1.219394e+08    1.259992e-08    7.640525e-13    1.135700e-08    1.693008e-09    8.900000e-01    4.831945e-01    3.411483e-01
    4.432007e+00    6.891031e+02    2.228117e+00    1.245700e+08    1.261668e-08    7.923775e-13    1.138824e-08    1.695995e-09    9.000000e-01    4.831945e-01    3.485481e-01
    4.336737e+00    6.829731e+02    2.327971e+00    1.271966e+08    1.263239e-08    8.213665e-13    1.141802e-08    1.698801e-09    9.100000e-01    4.831945e-01    3.559605e-01
    4.245199e+00    6.768739e+02    2.430031e+00    1.298189e+08    1.264714e-08    8.510340e-13    1.144647e-08    1.701443e-09    9.200000e-01    4.831945e-01    3.633850e-01
    4.157190e+00    6.708063e+02    2.534289e+00    1.324368e+08    1.266099e-08    8.813945e-13    1.147372e-08    1.703936e-09    9.300000e-01    4.831945e-01    3.708211e-01
    4.072521e+00    6.647714e+02    2.640739e+00    1.350499e+08    1.267403e-08    9.124635e-13    1.149983e-08    1.706292e-09    9.400000e-01    4.831945e-01    3.782684e-01
    3.991017e+00    6.587700e+02    2.749376e+00    1.376582e+08    1.268632e-08    9.442555e-13    1.152492e-08    1.708524e-09    9.500000e-01    4.831945e-01    3.857267e-01
    3.912510e+00    6.528022e+02    2.860193e+00    1.402614e+08    1.269793e-08    9.767880e-13    1.154907e-08    1.710644e-09    9.600000e-01    4.831945e-01    3.931955e-01
    3.836847e+00    6.468688e+02    2.973184e+00    1.428593e+08    1.270890e-08    1.010077e-12    1.157235e-08    1.712661e-09    9.700000e-01    4.831945e-01    4.006746e-01
    3.763884e+00    6.409700e+02    3.088344e+00    1.454518e+08    1.271929e-08    1.044140e-12    1.159482e-08    1.714583e-09    9.800000e-01    4.831945e-01    4.081637e-01
    3.693484e+00    6.351055e+02    3.205666e+00    1.480387e+08    1.272915e-08    1.078996e-12    1.161656e-08    1.716418e-09    9.900000e-01    4.831945e-01    4.156626e-01
    3.625519e+00    6.292758e+02    3.325144e+00    1.506199e+08    1.273850e-08    1.114661e-12    1.163761e-08    1.718175e-09    1.000000e+00    4.831945e-01    4.231710e-01
    3.559868e+00    6.234802e+02    3.446771e+00    1.531952e+08    1.274740e-08    1.151156e-12    1.165802e-08    1.719858e-09    1.010000e+00    4.831945e-01    4.306888e-01
    3.496421e+00    6.177190e+02    3.570543e+00    1.557644e+08    1.275587e-08    1.188501e-12    1.167785e-08    1.721475e-09    1.020000e+00    4.831945e-01    4.382158e-01
    3.435073e+00    6.119922e+02    3.696452e+00    1.583275e+08    1.276394e-08    1.226715e-12    1.169713e-08    1.723029e-09    1.030000e+00    4.831945e-01    4.457519e-01
    3.375723e+00    6.062990e+02    3.824492e+00    1.608844e+08    1.277164e-08    1.265820e-12    1.171590e-08    1.724527e-09    1.040000e+00    4.831945e-01    4.532968e-01
    3.318278e+00    6.006394e+02    3.954658e+00    1.634348e+08    1.277901e-08    1.305836e-12    1.173420e-08    1.725972e-09    1.050000e+00    4.831945e-01    4.608505e-01
    3.262651e+00    5.950131e+02    4.086943e+00    1.659789e+08    1.278606e-08    1.346787e-12    1.175206e-08    1.727369e-09    1.060000e+00    4.831945e-01    4.684128e-01
    3.208759e+00    5.894197e+02    4.221341e+00    1.685163e+08    1.279280e-08    1.388696e-12    1.176950e-08    1.728720e-09    1.070000e+00    4.831945e-01    4.759836e-01
    3.156523e+00    5.838587e+02    4.357846e+00    1.710470e+08    1.279927e-08    1.431585e-12    1.178656e-08    1.730029e-09    1.080000e+00    4.831945e-01    4.835629e-01
    3.105870e+00    5.783297e+02    4.496452e+00    1.735711e+08    1.280548e-08    1.475479e-12    1.180325e-08    1.731299e-09    1.090000e+00    4.831945e-01    4.911506e-01
    3.056731e+00    5.728325e+02    4.637152e+00    1.760883e+08    1.281145e-08    1.520404e-12    1.181960e-08    1.732532e-09    1.100000e+00    4.831945e-01    4.987466e-01
    3.009041e+00    5.673667e+02    4.779940e+00    1.785987e+08    1.281718e-08    1.566385e-12    1.183563e-08    1.733732e-09    1.110000e+00    4.831945e-01    5.063507e-01
    2.962736e+00    5.619317e+02    4.924811e+00    1.811020e+08    1.282270e-08    1.613448e-12    1.185136e-08    1.734899e-09    1.120000e+00    4.831945e-01    5.139631e-01
    2.917760e+00    5.565270e+02    5.071755e+00    1.835984e+08    1.282801e-08    1.661621e-12    1.186680e-08    1.736036e-09    1.130000e+00    4.831945e-01    5.215836e-01
    2.874057e+00    5.511526e+02    5.220770e+00    1.860877e+08    1.283312e-08    1.710933e-12    1.188197e-08    1.737145e-09    1.140000e+00    4.831945e-01    5.292121e-01
    2.831572e+00    5.458076e+02    5.371850e+00    1.885698e+08    1.283806e-08    1.761411e-12    1.189688e-08    1.738227e-09    1.150000e+00    4.831945e-01    5.368487e-01
    2.790257e+00    5.404918e+02    5.524985e+00    1.910447e+08    1.284282e-08    1.813088e-12    1.191155e-08    1.739285e-09    1.160000e+00    4.831945e-01    5.444932e-01
    2.750067e+00    5.352048e+02    5.680170e+00    1.935124e+08    1.284742e-08    1.865991e-12    1.192599e-08    1.740318e-09    1.170000e+00    4.831945e-01    5.521458e-01
    2.710954e+00    5.299461e+02    5.837400e+00    1.959728e+08    1.285186e-08    1.920155e-12    1.194021e-08    1.741330e-09    1.180000e+00    4.831945e-01    5.598063e-01
    2.672880e+00    5.247155e+02    5.996665e+00    1.984259e+08    1.285616e-08    1.975611e-12    1.195421e-08    1.742320e-09    1.190000e+00    4.831945e-01    5.674747e-01
    2.635799e+00    5.195122e+02    6.157965e+00    2.008715e+08    1.286031e-08    2.032393e-12    1.196801e-08    1.743290e-09    1.200000e+00    4.831945e-01    5.751511e-01
    2.599674e+00    5.143358e+02    6.321290e+00    2.033096e+08    1.286433e-08    2.090535e-12    1.198163e-08    1.744241e-09    1.210000e+00    4.831945e-01    5.828353e-01
    2.564473e+00    5.091863e+02    6.486630e+00    2.057403e+08    1.286821e-08    2.150074e-12    1.199507e-08    1.745173e-09    1.220000e+00    4.831945e-01    5.905275e-01
    2.530160e+00    5.040631e+02    6.653980e+00    2.081634e+08    1.287198e-08    2.211046e-12    1.200832e-08    1.746088e-09    1.230000e+00    4.831945e-01    5.982275e-01
    2.496698e+00    4.989657e+02    6.823340e+00    2.105790e+08    1.287562e-08    2.273489e-12    1.202141e-08    1.746986e-09    1.240000e+00    4.831945e-01    6.059355e-01
