# GF180MCU-D nfet_03v3 gm/ID Processed Lookup Table
# Corner: ff
# Temperature: 85C
# W = 2.0 um
# L = 4.5 um (4500 nm)
# Columns: gm/id [1/V]  gm/gds [V/V]  id/W [A/m]  ft [Hz]  Cgg/W [F/m]  Cgd/W [F/m]  Cgs/W [F/m]  Cdb/W [F/m]  vgs [V]  vth [V]  vdsat [V]
# vdsat = BSIM saturation voltage (|VDS|_sat, positive); use for headroom / saturation / cascode-bias calculations
#           gm/id          gm/gds            id/W              ft           Cgg/W           Cgd/W           Cgs/W           Cdb/W             vgs             vth           vdsat
    2.279659e+01    6.992366e+02    6.759525e-05    4.052754e+04    6.051400e-09    3.077769e-15    2.619936e-10    5.459795e-11    1.600000e-01    4.819985e-01    4.468251e-02
    2.278997e+01    6.975327e+02    8.490130e-05    5.087605e+04    6.052920e-09    3.435369e-15    2.946594e-10    6.072330e-11    1.700000e-01    4.819985e-01    4.470133e-02
    2.276487e+01    6.956979e+02    1.066210e-04    6.377284e+04    6.057485e-09    3.834521e-15    3.312677e-10    6.753095e-11    1.800000e-01    4.819985e-01    4.472493e-02
    2.272322e+01    6.937329e+02    1.338523e-04    7.980972e+04    6.065405e-09    4.280043e-15    3.722579e-10    7.509225e-11    1.900000e-01    4.819985e-01    4.475448e-02
    2.266648e+01    6.916414e+02    1.679556e-04    9.970291e+04    6.077020e-09    4.777281e-15    4.181082e-10    8.348410e-11    2.000000e-01    4.819985e-01    4.479144e-02
    2.259575e+01    6.894327e+02    2.106134e-04    1.243149e+05    6.092700e-09    5.332160e-15    4.693373e-10    9.278945e-11    2.100000e-01    4.819985e-01    4.483760e-02
    2.251185e+01    6.871214e+02    2.639014e-04    1.546785e+05    6.112840e-09    5.951235e-15    5.265040e-10    1.030969e-10    2.200000e-01    4.819985e-01    4.489512e-02
    2.241546e+01    6.847314e+02    3.303738e-04    1.920239e+05    6.137875e-09    6.641740e-15    5.902090e-10    1.145007e-10    2.300000e-01    4.819985e-01    4.496669e-02
    2.230707e+01    6.822944e+02    4.131661e-04    2.378070e+05    6.168260e-09    7.411650e-15    6.610910e-10    1.271008e-10    2.400000e-01    4.819985e-01    4.505553e-02
    2.218716e+01    6.798531e+02    5.161165e-04    2.937405e+05    6.204485e-09    8.269715e-15    7.398290e-10    1.410016e-10    2.500000e-01    4.819985e-01    4.516554e-02
    2.205620e+01    6.774634e+02    6.439110e-04    3.618267e+05    6.247065e-09    9.225540e-15    8.271360e-10    1.563118e-10    2.600000e-01    4.819985e-01    4.530141e-02
    2.191470e+01    6.751946e+02    8.022545e-04    4.443919e+05    6.296535e-09    1.028961e-14    9.237535e-10    1.731434e-10    2.700000e-01    4.819985e-01    4.546872e-02
    2.176324e+01    6.731315e+02    9.980725e-04    5.441215e+05    6.353455e-09    1.147335e-14    1.030448e-09    1.916099e-10    2.800000e-01    4.819985e-01    4.567406e-02
    2.160249e+01    6.713743e+02    1.239750e-03    6.640983e+05    6.418380e-09    1.278917e-14    1.147998e-09    2.118251e-10    2.900000e-01    4.819985e-01    4.592516e-02
    2.143315e+01    6.700384e+02    1.537406e-03    8.078362e+05    6.491895e-09    1.425048e-14    1.277186e-09    2.339006e-10    3.000000e-01    4.819985e-01    4.623100e-02
    2.125596e+01    6.692526e+02    1.903227e-03    9.793210e+05    6.574555e-09    1.587173e-14    1.418779e-09    2.579438e-10    3.100000e-01    4.819985e-01    4.660189e-02
    2.107158e+01    6.691573e+02    2.351837e-03    1.183043e+06    6.666900e-09    1.766842e-14    1.573517e-09    2.840541e-10    3.200000e-01    4.819985e-01    4.704952e-02
    2.088053e+01    6.698981e+02    2.900736e-03    1.424021e+06    6.769450e-09    1.965706e-14    1.742087e-09    3.123205e-10    3.300000e-01    4.819985e-01    4.758700e-02
    2.068301e+01    6.716207e+02    3.570801e-03    1.707824e+06    6.882660e-09    2.185519e-14    1.925104e-09    3.428168e-10    3.400000e-01    4.819985e-01    4.822879e-02
    2.047882e+01    6.744613e+02    4.386830e-03    2.040558e+06    7.006915e-09    2.428132e-14    2.123082e-09    3.755988e-10    3.500000e-01    4.819985e-01    4.899058e-02
    2.026725e+01    6.785400e+02    5.378155e-03    2.428828e+06    7.142520e-09    2.695482e-14    2.336406e-09    4.106989e-10    3.600000e-01    4.819985e-01    4.988910e-02
    2.004690e+01    6.839485e+02    6.579290e-03    2.879647e+06    7.289660e-09    2.989585e-14    2.565308e-09    4.481229e-10    3.700000e-01    4.819985e-01    5.094179e-02
    1.981583e+01    6.907396e+02    8.030545e-03    3.400278e+06    7.448400e-09    3.312526e-14    2.809832e-09    4.878453e-10    3.800000e-01    4.819985e-01    5.216647e-02
    1.957146e+01    6.989212e+02    9.778665e-03    3.998025e+06    7.618640e-09    3.666437e-14    3.069813e-09    5.298065e-10    3.900000e-01    4.819985e-01    5.358084e-02
    1.931085e+01    7.084468e+02    1.187732e-02    4.679920e+06    7.800125e-09    4.053481e-14    3.344853e-09    5.739090e-10    4.000000e-01    4.819985e-01    5.520198e-02
    1.903090e+01    7.192157e+02    1.438749e-02    5.452387e+06    7.992410e-09    4.475836e-14    3.634302e-09    6.200170e-10    4.100000e-01    4.819985e-01    5.704580e-02
    1.872874e+01    7.310721e+02    1.737753e-02    6.320841e+06    8.194870e-09    4.935665e-14    3.937248e-09    6.679545e-10    4.200000e-01    4.819985e-01    5.912649e-02
    1.840201e+01    7.438117e+02    2.092312e-02    7.289325e+06    8.406680e-09    5.435100e-14    4.252519e-09    7.175085e-10    4.300000e-01    4.819985e-01    6.145607e-02
    1.804918e+01    7.571926e+02    2.510669e-02    8.360169e+06    8.626845e-09    5.976205e-14    4.578688e-09    7.684290e-10    4.400000e-01    4.819985e-01    6.404392e-02
    1.766980e+01    7.709455e+02    3.001666e-02    9.533797e+06    8.854180e-09    6.560970e-14    4.914098e-09    8.204335e-10    4.500000e-01    4.819985e-01    6.689654e-02
    1.726461e+01    7.847901e+02    3.574630e-02    1.080862e+07    9.087365e-09    7.191275e-14    5.256885e-09    8.732165e-10    4.600000e-01    4.819985e-01    7.001739e-02
    1.683548e+01    7.984510e+02    4.239232e-02    1.218109e+07    9.324955e-09    7.868870e-14    5.605035e-09    9.264505e-10    4.700000e-01    4.819985e-01    7.340684e-02
    1.638533e+01    8.116690e+02    5.005330e-02    1.364597e+07    9.565410e-09    8.595360e-14    5.956405e-09    9.798000e-10    4.800000e-01    4.819985e-01    7.706233e-02
    1.591788e+01    8.242142e+02    5.882800e-02    1.519659e+07    9.807160e-09    9.372190e-14    6.308800e-09    1.032926e-09    4.900000e-01    4.819985e-01    8.097860e-02
    1.543737e+01    8.358931e+02    6.881380e-02    1.682531e+07    1.004861e-08    1.020064e-13    6.660030e-09    1.085498e-09    5.000000e-01    4.819985e-01    8.514803e-02
    1.494830e+01    8.465524e+02    8.010505e-02    1.852389e+07    1.028821e-08    1.108182e-13    7.007955e-09    1.137197e-09    5.100000e-01    4.819985e-01    8.956103e-02
    1.445517e+01    8.560821e+02    9.279180e-02    2.028394e+07    1.052447e-08    1.201666e-13    7.350545e-09    1.187731e-09    5.200000e-01    4.819985e-01    9.420644e-02
    1.396223e+01    8.644130e+02    1.069589e-01    2.209733e+07    1.075603e-08    1.300591e-13    7.685920e-09    1.236836e-09    5.300000e-01    4.819985e-01    9.907199e-02
    1.347339e+01    8.715123e+02    1.226847e-01    2.395632e+07    1.098164e-08    1.405019e-13    8.012395e-09    1.284280e-09    5.400000e-01    4.819985e-01    1.041447e-01
    1.299202e+01    8.773794e+02    1.400414e-01    2.585391e+07    1.120022e-08    1.514995e-13    8.328510e-09    1.329870e-09    5.500000e-01    4.819985e-01    1.094111e-01
    1.252097e+01    8.820402e+02    1.590937e-01    2.778384e+07    1.141087e-08    1.630550e-13    8.633045e-09    1.373453e-09    5.600000e-01    4.819985e-01    1.148579e-01
    1.206253e+01    8.855407e+02    1.798998e-01    2.974070e+07    1.161283e-08    1.751706e-13    8.925030e-09    1.414913e-09    5.700000e-01    4.819985e-01    1.204718e-01
    1.161850e+01    8.879418e+02    2.025107e-01    3.171986e+07    1.180557e-08    1.878474e-13    9.203730e-09    1.454173e-09    5.800000e-01    4.819985e-01    1.262399e-01
    1.119014e+01    8.893157e+02    2.269711e-01    3.371749e+07    1.198867e-08    2.010857e-13    9.468660e-09    1.491191e-09    5.900000e-01    4.819985e-01    1.321499e-01
    1.077834e+01    8.897392e+02    2.533194e-01    3.573039e+07    1.216193e-08    2.148852e-13    9.719550e-09    1.525958e-09    6.000000e-01    4.819985e-01    1.381902e-01
    1.038356e+01    8.892928e+02    2.815885e-01    3.775596e+07    1.232526e-08    2.292453e-13    9.956335e-09    1.558493e-09    6.100000e-01    4.819985e-01    1.443497e-01
    1.000602e+01    8.880564e+02    3.118057e-01    3.979208e+07    1.247869e-08    2.441652e-13    1.017912e-08    1.588839e-09    6.200000e-01    4.819985e-01    1.506183e-01
    9.645660e+00    8.861089e+02    3.439941e-01    4.183711e+07    1.262239e-08    2.596438e-13    1.038815e-08    1.617061e-09    6.300000e-01    4.819985e-01    1.569864e-01
    9.302218e+00    8.835247e+02    3.781724e-01    4.388960e+07    1.275660e-08    2.756804e-13    1.058381e-08    1.643237e-09    6.400000e-01    4.819985e-01    1.634454e-01
    8.975304e+00    8.803752e+02    4.143554e-01    4.594848e+07    1.288164e-08    2.922745e-13    1.076657e-08    1.667460e-09    6.500000e-01    4.819985e-01    1.699873e-01
    8.664402e+00    8.767261e+02    4.525551e-01    4.801284e+07    1.299789e-08    3.094254e-13    1.093700e-08    1.689831e-09    6.600000e-01    4.819985e-01    1.766047e-01
    8.368928e+00    8.726384e+02    4.927804e-01    5.008194e+07    1.310576e-08    3.271335e-13    1.109570e-08    1.710456e-09    6.700000e-01    4.819985e-01    1.832911e-01
    8.088237e+00    8.681679e+02    5.350380e-01    5.215513e+07    1.320571e-08    3.453992e-13    1.124330e-08    1.729444e-09    6.800000e-01    4.819985e-01    1.900403e-01
    7.821665e+00    8.633650e+02    5.793320e-01    5.423188e+07    1.329818e-08    3.642239e-13    1.138047e-08    1.746904e-09    6.900000e-01    4.819985e-01    1.968470e-01
    7.568522e+00    8.582754e+02    6.256655e-01    5.631173e+07    1.338365e-08    3.836091e-13    1.150789e-08    1.762946e-09    7.000000e-01    4.819985e-01    2.037061e-01
    7.328126e+00    8.529405e+02    6.740395e-01    5.839425e+07    1.346258e-08    4.035572e-13    1.162619e-08    1.777674e-09    7.100000e-01    4.819985e-01    2.106132e-01
    7.099802e+00    8.473964e+02    7.244540e-01    6.047907e+07    1.353543e-08    4.240713e-13    1.173603e-08    1.791191e-09    7.200000e-01    4.819985e-01    2.175644e-01
    6.882876e+00    8.416753e+02    7.769085e-01    6.256576e+07    1.360264e-08    4.451550e-13    1.183804e-08    1.803596e-09    7.300000e-01    4.819985e-01    2.245559e-01
    6.676722e+00    8.358059e+02    8.314005e-01    6.465406e+07    1.366463e-08    4.668127e-13    1.193280e-08    1.814979e-09    7.400000e-01    4.819985e-01    2.315846e-01
    6.480723e+00    8.298145e+02    8.879280e-01    6.674364e+07    1.372181e-08    4.890495e-13    1.202090e-08    1.825427e-09    7.500000e-01    4.819985e-01    2.386475e-01
    6.294288e+00    8.237218e+02    9.464875e-01    6.883414e+07    1.377456e-08    5.118710e-13    1.210286e-08    1.835022e-09    7.600000e-01    4.819985e-01    2.457420e-01
    6.116862e+00    8.175489e+02    1.007076e+00    7.092533e+07    1.382323e-08    5.352840e-13    1.217918e-08    1.843838e-09    7.700000e-01    4.819985e-01    2.528657e-01
    5.947916e+00    8.113112e+02    1.069689e+00    7.301686e+07    1.386818e-08    5.592950e-13    1.225033e-08    1.851946e-09    7.800000e-01    4.819985e-01    2.600166e-01
    5.786945e+00    8.050248e+02    1.134323e+00    7.510845e+07    1.390969e-08    5.839125e-13    1.231676e-08    1.859411e-09    7.900000e-01    4.819985e-01    2.671928e-01
    5.633478e+00    7.987004e+02    1.200973e+00    7.719974e+07    1.394807e-08    6.091445e-13    1.237886e-08    1.866290e-09    8.000000e-01    4.819985e-01    2.743925e-01
    5.487079e+00    7.923511e+02    1.269635e+00    7.929060e+07    1.398358e-08    6.350005e-13    1.243701e-08    1.872638e-09    8.100000e-01    4.819985e-01    2.816142e-01
    5.347328e+00    7.859859e+02    1.340303e+00    8.138068e+07    1.401647e-08    6.614895e-13    1.249153e-08    1.878504e-09    8.200000e-01    4.819985e-01    2.888565e-01
    5.213835e+00    7.796124e+02    1.412974e+00    8.346971e+07    1.404697e-08    6.886225e-13    1.254276e-08    1.883934e-09    8.300000e-01    4.819985e-01    2.961183e-01
    5.086232e+00    7.732377e+02    1.487642e+00    8.555746e+07    1.407527e-08    7.164105e-13    1.259097e-08    1.888967e-09    8.400000e-01    4.819985e-01    3.033984e-01
    4.964177e+00    7.668672e+02    1.564302e+00    8.764361e+07    1.410158e-08    7.448650e-13    1.263643e-08    1.893642e-09    8.500000e-01    4.819985e-01    3.106958e-01
    4.847354e+00    7.605072e+02    1.642949e+00    8.972804e+07    1.412605e-08    7.739985e-13    1.267938e-08    1.897990e-09    8.600000e-01    4.819985e-01    3.180096e-01
    4.735457e+00    7.541608e+02    1.723579e+00    9.181039e+07    1.414886e-08    8.038230e-13    1.272003e-08    1.902044e-09    8.700000e-01    4.819985e-01    3.253390e-01
    4.628214e+00    7.478319e+02    1.806186e+00    9.389055e+07    1.417014e-08    8.343530e-13    1.275859e-08    1.905832e-09    8.800000e-01    4.819985e-01    3.326834e-01
    4.525358e+00    7.415237e+02    1.890766e+00    9.596821e+07    1.419003e-08    8.656020e-13    1.279522e-08    1.909376e-09    8.900000e-01    4.819985e-01    3.400419e-01
    4.426643e+00    7.352381e+02    1.977312e+00    9.804317e+07    1.420864e-08    8.975845e-13    1.283011e-08    1.912700e-09    9.000000e-01    4.819985e-01    3.474141e-01
    4.331847e+00    7.289776e+02    2.065821e+00    1.001153e+08    1.422609e-08    9.303165e-13    1.286338e-08    1.915825e-09    9.100000e-01    4.819985e-01    3.547994e-01
    4.240754e+00    7.227440e+02    2.156287e+00    1.021844e+08    1.424246e-08    9.638130e-13    1.289519e-08    1.918767e-09    9.200000e-01    4.819985e-01    3.621973e-01
    4.153160e+00    7.165382e+02    2.248705e+00    1.042503e+08    1.425785e-08    9.980910e-13    1.292565e-08    1.921544e-09    9.300000e-01    4.819985e-01    3.696075e-01
    4.068883e+00    7.103614e+02    2.343069e+00    1.063127e+08    1.427234e-08    1.033168e-12    1.295487e-08    1.924171e-09    9.400000e-01    4.819985e-01    3.770294e-01
    3.987746e+00    7.042148e+02    2.439377e+00    1.083716e+08    1.428601e-08    1.069060e-12    1.298296e-08    1.926661e-09    9.500000e-01    4.819985e-01    3.844628e-01
    3.909587e+00    6.980983e+02    2.537620e+00    1.104268e+08    1.429892e-08    1.105788e-12    1.301000e-08    1.929025e-09    9.600000e-01    4.819985e-01    3.919073e-01
    3.834251e+00    6.920130e+02    2.637796e+00    1.124782e+08    1.431112e-08    1.143368e-12    1.303607e-08    1.931275e-09    9.700000e-01    4.819985e-01    3.993627e-01
    3.761594e+00    6.859589e+02    2.739898e+00    1.145255e+08    1.432268e-08    1.181822e-12    1.306126e-08    1.933421e-09    9.800000e-01    4.819985e-01    4.068286e-01
    3.691486e+00    6.799363e+02    2.843921e+00    1.165688e+08    1.433365e-08    1.221169e-12    1.308563e-08    1.935471e-09    9.900000e-01    4.819985e-01    4.143049e-01
    3.623793e+00    6.739451e+02    2.949862e+00    1.186078e+08    1.434406e-08    1.261430e-12    1.310924e-08    1.937432e-09    1.000000e+00    4.819985e-01    4.217912e-01
    3.558404e+00    6.679856e+02    3.057713e+00    1.206425e+08    1.435396e-08    1.302627e-12    1.313214e-08    1.939314e-09    1.010000e+00    4.819985e-01    4.292876e-01
    3.495203e+00    6.620575e+02    3.167472e+00    1.226728e+08    1.436339e-08    1.344781e-12    1.315439e-08    1.941121e-09    1.020000e+00    4.819985e-01    4.367937e-01
    3.434085e+00    6.561604e+02    3.279131e+00    1.246984e+08    1.437239e-08    1.387916e-12    1.317603e-08    1.942859e-09    1.030000e+00    4.819985e-01    4.443093e-01
    3.374955e+00    6.502945e+02    3.392686e+00    1.267195e+08    1.438098e-08    1.432056e-12    1.319712e-08    1.944534e-09    1.040000e+00    4.819985e-01    4.518345e-01
    3.317720e+00    6.444595e+02    3.508133e+00    1.287359e+08    1.438918e-08    1.477224e-12    1.321768e-08    1.946151e-09    1.050000e+00    4.819985e-01    4.593690e-01
    3.262291e+00    6.386552e+02    3.625465e+00    1.307475e+08    1.439704e-08    1.523446e-12    1.323774e-08    1.947713e-09    1.060000e+00    4.819985e-01    4.669126e-01
    3.208586e+00    6.328810e+02    3.744677e+00    1.327542e+08    1.440456e-08    1.570747e-12    1.325734e-08    1.949226e-09    1.070000e+00    4.819985e-01    4.744654e-01
    3.156530e+00    6.271370e+02    3.865766e+00    1.347561e+08    1.441176e-08    1.619155e-12    1.327652e-08    1.950692e-09    1.080000e+00    4.819985e-01    4.820273e-01
    3.106048e+00    6.214223e+02    3.988723e+00    1.367528e+08    1.441869e-08    1.668696e-12    1.329530e-08    1.952114e-09    1.090000e+00    4.819985e-01    4.895980e-01
    3.057071e+00    6.157369e+02    4.113547e+00    1.387446e+08    1.442534e-08    1.719400e-12    1.331368e-08    1.953495e-09    1.100000e+00    4.819985e-01    4.971776e-01
    3.009535e+00    6.100803e+02    4.240230e+00    1.407312e+08    1.443173e-08    1.771294e-12    1.333172e-08    1.954839e-09    1.110000e+00    4.819985e-01    5.047661e-01
    2.963377e+00    6.044519e+02    4.368767e+00    1.427126e+08    1.443788e-08    1.824409e-12    1.334941e-08    1.956146e-09    1.120000e+00    4.819985e-01    5.123632e-01
    2.918541e+00    5.988517e+02    4.499154e+00    1.446888e+08    1.444381e-08    1.878776e-12    1.336680e-08    1.957421e-09    1.130000e+00    4.819985e-01    5.199691e-01
    2.874970e+00    5.932793e+02    4.631385e+00    1.466598e+08    1.444952e-08    1.934427e-12    1.338387e-08    1.958663e-09    1.140000e+00    4.819985e-01    5.275836e-01
    2.832614e+00    5.877341e+02    4.765455e+00    1.486254e+08    1.445502e-08    1.991395e-12    1.340067e-08    1.959877e-09    1.150000e+00    4.819985e-01    5.352067e-01
    2.791423e+00    5.822157e+02    4.901357e+00    1.505857e+08    1.446034e-08    2.049712e-12    1.341718e-08    1.961062e-09    1.160000e+00    4.819985e-01    5.428384e-01
    2.751347e+00    5.767236e+02    5.039090e+00    1.525405e+08    1.446547e-08    2.109414e-12    1.343345e-08    1.962221e-09    1.170000e+00    4.819985e-01    5.504787e-01
    2.712348e+00    5.712577e+02    5.178640e+00    1.544898e+08    1.447043e-08    2.170537e-12    1.344946e-08    1.963355e-09    1.180000e+00    4.819985e-01    5.581274e-01
    2.674378e+00    5.658172e+02    5.320010e+00    1.564337e+08    1.447522e-08    2.233117e-12    1.346525e-08    1.964466e-09    1.190000e+00    4.819985e-01    5.657847e-01
    2.637398e+00    5.604019e+02    5.463195e+00    1.583720e+08    1.447985e-08    2.297192e-12    1.348080e-08    1.965554e-09    1.200000e+00    4.819985e-01    5.734505e-01
    2.601375e+00    5.550117e+02    5.608180e+00    1.603047e+08    1.448434e-08    2.362802e-12    1.349615e-08    1.966621e-09    1.210000e+00    4.819985e-01    5.811248e-01
    2.566266e+00    5.496457e+02    5.754970e+00    1.622318e+08    1.448868e-08    2.429986e-12    1.351129e-08    1.967667e-09    1.220000e+00    4.819985e-01    5.888075e-01
    2.532041e+00    5.443040e+02    5.903555e+00    1.641534e+08    1.449288e-08    2.498787e-12    1.352623e-08    1.968693e-09    1.230000e+00    4.819985e-01    5.964987e-01
    2.498665e+00    5.389858e+02    6.053930e+00    1.660692e+08    1.449695e-08    2.569246e-12    1.354099e-08    1.969701e-09    1.240000e+00    4.819985e-01    6.041984e-01
