# GF180MCU-D pfet_03v3 gm/ID Processed Lookup Table
# Corner: sf
# Temperature: 25C
# W = 2.0 um
# L = 3.5 um (3500 nm)
# Columns: gm/id [1/V]  gm/gds [V/V]  id/W [A/m]  ft [Hz]  Cgg/W [F/m]  Cgd/W [F/m]  Cgs/W [F/m]  Cdb/W [F/m]  vgs [V]  vth [V]  vdsat [V]
# vdsat = BSIM saturation voltage (|VDS|_sat, positive); use for headroom / saturation / cascode-bias calculations
#           gm/id          gm/gds            id/W              ft           Cgg/W           Cgd/W           Cgs/W           Cdb/W             vgs             vth           vdsat
    5.524399e-01    2.962954e+00    2.088625e+01    1.542585e+08    1.190465e-08    3.137297e-10    1.178031e-08    2.029191e-09   -3.300000e+00    6.845864e-01    1.997754e+00
    5.569998e-01    3.035268e+00    2.077086e+01    1.547356e+08    1.189979e-08    3.031904e-10    1.177905e-08    2.028725e-09   -3.290000e+00    6.845864e-01    1.989153e+00
    5.616225e-01    3.110771e+00    2.065486e+01    1.552095e+08    1.189512e-08    2.929919e-10    1.177759e-08    2.028250e-09   -3.280000e+00    6.845864e-01    1.980562e+00
    5.662963e-01    3.189662e+00    2.053870e+01    1.556799e+08    1.189061e-08    2.831260e-10    1.177594e-08    2.027766e-09   -3.270000e+00    6.845864e-01    1.971982e+00
    5.710253e-01    3.272158e+00    2.042224e+01    1.561469e+08    1.188627e-08    2.735845e-10    1.177413e-08    2.027274e-09   -3.260000e+00    6.845864e-01    1.963411e+00
    5.758104e-01    3.358493e+00    2.030547e+01    1.566101e+08    1.188210e-08    2.643590e-10    1.177213e-08    2.026775e-09   -3.250000e+00    6.845864e-01    1.954850e+00
    5.806517e-01    3.448918e+00    2.018840e+01    1.570694e+08    1.187808e-08    2.554412e-10    1.176996e-08    2.026268e-09   -3.240000e+00    6.845864e-01    1.946299e+00
    5.855492e-01    3.543706e+00    2.007102e+01    1.575246e+08    1.187421e-08    2.468229e-10    1.176763e-08    2.025754e-09   -3.230000e+00    6.845864e-01    1.937758e+00
    5.905037e-01    3.643152e+00    1.995335e+01    1.579754e+08    1.187050e-08    2.384956e-10    1.176515e-08    2.025235e-09   -3.220000e+00    6.845864e-01    1.929227e+00
    5.955150e-01    3.747574e+00    1.983537e+01    1.584217e+08    1.186693e-08    2.304512e-10    1.176250e-08    2.024711e-09   -3.210000e+00    6.845864e-01    1.920705e+00
    6.005830e-01    3.857316e+00    1.971710e+01    1.588631e+08    1.186351e-08    2.226815e-10    1.175971e-08    2.024181e-09   -3.200000e+00    6.845864e-01    1.912194e+00
    6.057079e-01    3.972755e+00    1.959854e+01    1.592995e+08    1.186022e-08    2.151784e-10    1.175677e-08    2.023647e-09   -3.190000e+00    6.845864e-01    1.903692e+00
    6.108895e-01    4.094294e+00    1.947969e+01    1.597303e+08    1.185707e-08    2.079339e-10    1.175368e-08    2.023109e-09   -3.180000e+00    6.845864e-01    1.895199e+00
    6.161274e-01    4.222372e+00    1.936054e+01    1.601554e+08    1.185405e-08    2.009401e-10    1.175047e-08    2.022567e-09   -3.170000e+00    6.845864e-01    1.886717e+00
    6.214211e-01    4.357465e+00    1.924112e+01    1.605742e+08    1.185115e-08    1.941892e-10    1.174713e-08    2.022022e-09   -3.160000e+00    6.845864e-01    1.878244e+00
    6.267706e-01    4.500092e+00    1.912140e+01    1.609866e+08    1.184838e-08    1.876735e-10    1.174365e-08    2.021475e-09   -3.150000e+00    6.845864e-01    1.869781e+00
    6.321746e-01    4.650811e+00    1.900142e+01    1.613920e+08    1.184572e-08    1.813855e-10    1.174006e-08    2.020926e-09   -3.140000e+00    6.845864e-01    1.861328e+00
    6.376324e-01    4.810230e+00    1.888116e+01    1.617898e+08    1.184318e-08    1.753180e-10    1.173633e-08    2.020374e-09   -3.130000e+00    6.845864e-01    1.852884e+00
    6.431427e-01    4.979005e+00    1.876064e+01    1.621796e+08    1.184074e-08    1.694636e-10    1.173250e-08    2.019821e-09   -3.120000e+00    6.845864e-01    1.844450e+00
    6.487045e-01    5.157856e+00    1.863985e+01    1.625608e+08    1.183841e-08    1.638153e-10    1.172857e-08    2.019266e-09   -3.110000e+00    6.845864e-01    1.836025e+00
    6.543162e-01    5.347552e+00    1.851881e+01    1.629329e+08    1.183620e-08    1.583661e-10    1.172452e-08    2.018711e-09   -3.100000e+00    6.845864e-01    1.827610e+00
    6.599765e-01    5.548937e+00    1.839751e+01    1.632952e+08    1.183408e-08    1.531094e-10    1.172036e-08    2.018155e-09   -3.090000e+00    6.845864e-01    1.819205e+00
    6.656830e-01    5.762909e+00    1.827596e+01    1.636470e+08    1.183205e-08    1.480386e-10    1.171611e-08    2.017599e-09   -3.080000e+00    6.845864e-01    1.810809e+00
    6.714334e-01    5.990455e+00    1.815419e+01    1.639876e+08    1.183012e-08    1.431472e-10    1.171176e-08    2.017043e-09   -3.070000e+00    6.845864e-01    1.802423e+00
    6.772255e-01    6.232629e+00    1.803218e+01    1.643163e+08    1.182827e-08    1.384291e-10    1.170731e-08    2.016487e-09   -3.060000e+00    6.845864e-01    1.794046e+00
    6.830567e-01    6.490572e+00    1.790996e+01    1.646322e+08    1.182651e-08    1.338782e-10    1.170278e-08    2.015931e-09   -3.050000e+00    6.845864e-01    1.785679e+00
    6.889239e-01    6.765513e+00    1.778751e+01    1.649345e+08    1.182484e-08    1.294886e-10    1.169815e-08    2.015376e-09   -3.040000e+00    6.845864e-01    1.777321e+00
    6.948238e-01    7.058761e+00    1.766487e+01    1.652224e+08    1.182324e-08    1.252546e-10    1.169345e-08    2.014821e-09   -3.030000e+00    6.845864e-01    1.768972e+00
    7.007532e-01    7.371732e+00    1.754204e+01    1.654949e+08    1.182172e-08    1.211707e-10    1.168866e-08    2.014269e-09   -3.020000e+00    6.845864e-01    1.760633e+00
    7.067086e-01    7.705931e+00    1.741903e+01    1.657512e+08    1.182028e-08    1.172314e-10    1.168379e-08    2.013717e-09   -3.010000e+00    6.845864e-01    1.752304e+00
    7.126858e-01    8.062957e+00    1.729584e+01    1.659903e+08    1.181891e-08    1.134316e-10    1.167885e-08    2.013166e-09   -3.000000e+00    6.845864e-01    1.743983e+00
    7.186807e-01    8.444507e+00    1.717250e+01    1.662112e+08    1.181760e-08    1.097663e-10    1.167382e-08    2.012617e-09   -2.990000e+00    6.845864e-01    1.735673e+00
    7.246897e-01    8.852374e+00    1.704902e+01    1.664132e+08    1.181636e-08    1.062306e-10    1.166874e-08    2.012069e-09   -2.980000e+00    6.845864e-01    1.727371e+00
    7.307080e-01    9.288447e+00    1.692540e+01    1.665952e+08    1.181518e-08    1.028197e-10    1.166358e-08    2.011523e-09   -2.970000e+00    6.845864e-01    1.719079e+00
    7.367312e-01    9.754693e+00    1.680167e+01    1.667563e+08    1.181407e-08    9.952910e-11    1.165836e-08    2.010978e-09   -2.960000e+00    6.845864e-01    1.710796e+00
    7.427557e-01    1.025316e+01    1.667784e+01    1.668957e+08    1.181302e-08    9.635440e-11    1.165307e-08    2.010437e-09   -2.950000e+00    6.845864e-01    1.702522e+00
    7.487765e-01    1.078598e+01    1.655392e+01    1.670126e+08    1.181202e-08    9.329135e-11    1.164772e-08    2.009896e-09   -2.940000e+00    6.845864e-01    1.694258e+00
    7.547900e-01    1.135532e+01    1.642994e+01    1.671064e+08    1.181106e-08    9.033580e-11    1.164230e-08    2.009358e-09   -2.930000e+00    6.845864e-01    1.686003e+00
    7.607922e-01    1.196340e+01    1.630590e+01    1.671764e+08    1.181017e-08    8.748385e-11    1.163683e-08    2.008822e-09   -2.920000e+00    6.845864e-01    1.677757e+00
    7.667790e-01    1.261245e+01    1.618184e+01    1.672219e+08    1.180933e-08    8.473160e-11    1.163131e-08    2.008288e-09   -2.910000e+00    6.845864e-01    1.669520e+00
    7.727475e-01    1.330472e+01    1.605776e+01    1.672426e+08    1.180853e-08    8.207540e-11    1.162572e-08    2.007756e-09   -2.900000e+00    6.845864e-01    1.661293e+00
    7.786944e-01    1.404240e+01    1.593367e+01    1.672381e+08    1.180777e-08    7.951175e-11    1.162009e-08    2.007227e-09   -2.890000e+00    6.845864e-01    1.653075e+00
    7.846171e-01    1.482769e+01    1.580961e+01    1.672082e+08    1.180706e-08    7.703715e-11    1.161440e-08    2.006699e-09   -2.880000e+00    6.845864e-01    1.644866e+00
    7.905135e-01    1.566268e+01    1.568559e+01    1.671527e+08    1.180639e-08    7.464830e-11    1.160866e-08    2.006174e-09   -2.870000e+00    6.845864e-01    1.636666e+00
    7.963818e-01    1.654935e+01    1.556162e+01    1.670716e+08    1.180575e-08    7.234205e-11    1.160287e-08    2.005652e-09   -2.860000e+00    6.845864e-01    1.628475e+00
    8.022210e-01    1.748955e+01    1.543773e+01    1.669652e+08    1.180516e-08    7.011535e-11    1.159704e-08    2.005131e-09   -2.850000e+00    6.845864e-01    1.620293e+00
    8.080301e-01    1.848501e+01    1.531394e+01    1.668335e+08    1.180460e-08    6.796520e-11    1.159115e-08    2.004613e-09   -2.840000e+00    6.845864e-01    1.612120e+00
    8.138093e-01    1.953723e+01    1.519026e+01    1.666771e+08    1.180408e-08    6.588880e-11    1.158522e-08    2.004096e-09   -2.830000e+00    6.845864e-01    1.603957e+00
    8.195588e-01    2.064753e+01    1.506671e+01    1.664963e+08    1.180359e-08    6.388340e-11    1.157926e-08    2.003583e-09   -2.820000e+00    6.845864e-01    1.595802e+00
    8.252793e-01    2.181699e+01    1.494331e+01    1.662918e+08    1.180313e-08    6.194640e-11    1.157324e-08    2.003072e-09   -2.810000e+00    6.845864e-01    1.587656e+00
    8.309721e-01    2.304644e+01    1.482007e+01    1.660640e+08    1.180270e-08    6.007525e-11    1.156719e-08    2.002562e-09   -2.800000e+00    6.845864e-01    1.579520e+00
    8.366388e-01    2.433647e+01    1.469701e+01    1.658138e+08    1.180229e-08    5.826745e-11    1.156109e-08    2.002055e-09   -2.790000e+00    6.845864e-01    1.571392e+00
    8.422810e-01    2.568737e+01    1.457415e+01    1.655419e+08    1.180191e-08    5.652080e-11    1.155496e-08    2.001550e-09   -2.780000e+00    6.845864e-01    1.563274e+00
    8.479023e-01    2.709920e+01    1.445150e+01    1.652492e+08    1.180157e-08    5.483290e-11    1.154878e-08    2.001047e-09   -2.770000e+00    6.845864e-01    1.555164e+00
    8.535036e-01    2.857171e+01    1.432909e+01    1.649363e+08    1.180124e-08    5.320165e-11    1.154256e-08    2.000547e-09   -2.760000e+00    6.845864e-01    1.547063e+00
    8.590886e-01    3.010441e+01    1.420691e+01    1.646044e+08    1.180094e-08    5.162500e-11    1.153632e-08    2.000047e-09   -2.750000e+00    6.845864e-01    1.538971e+00
    8.646605e-01    3.169656e+01    1.408499e+01    1.642541e+08    1.180066e-08    5.010090e-11    1.153003e-08    1.999551e-09   -2.740000e+00    6.845864e-01    1.530888e+00
    8.702223e-01    3.334718e+01    1.396334e+01    1.638865e+08    1.180039e-08    4.862744e-11    1.152371e-08    1.999057e-09   -2.730000e+00    6.845864e-01    1.522814e+00
    8.757764e-01    3.505507e+01    1.384197e+01    1.635022e+08    1.180015e-08    4.720276e-11    1.151735e-08    1.998564e-09   -2.720000e+00    6.845864e-01    1.514749e+00
    8.813269e-01    3.681885e+01    1.372089e+01    1.631023e+08    1.179993e-08    4.582506e-11    1.151096e-08    1.998073e-09   -2.710000e+00    6.845864e-01    1.506693e+00
    8.868767e-01    3.863695e+01    1.360012e+01    1.626877e+08    1.179971e-08    4.449267e-11    1.150454e-08    1.997583e-09   -2.700000e+00    6.845864e-01    1.498645e+00
    8.924294e-01    4.050767e+01    1.347966e+01    1.622589e+08    1.179953e-08    4.320391e-11    1.149808e-08    1.997096e-09   -2.690000e+00    6.845864e-01    1.490606e+00
    8.979878e-01    4.242922e+01    1.335953e+01    1.618169e+08    1.179935e-08    4.195720e-11    1.149159e-08    1.996610e-09   -2.680000e+00    6.845864e-01    1.482576e+00
    9.035558e-01    4.439967e+01    1.323973e+01    1.613624e+08    1.179918e-08    4.075103e-11    1.148507e-08    1.996126e-09   -2.670000e+00    6.845864e-01    1.474555e+00
    9.091357e-01    4.641706e+01    1.312028e+01    1.608960e+08    1.179903e-08    3.958393e-11    1.147851e-08    1.995643e-09   -2.660000e+00    6.845864e-01    1.466542e+00
    9.147311e-01    4.847939e+01    1.300117e+01    1.604186e+08    1.179889e-08    3.845449e-11    1.147192e-08    1.995162e-09   -2.650000e+00    6.845864e-01    1.458539e+00
    9.203450e-01    5.058465e+01    1.288243e+01    1.599306e+08    1.179877e-08    3.736137e-11    1.146531e-08    1.994682e-09   -2.640000e+00    6.845864e-01    1.450543e+00
    9.259796e-01    5.273082e+01    1.276405e+01    1.594328e+08    1.179866e-08    3.630324e-11    1.145866e-08    1.994204e-09   -2.630000e+00    6.845864e-01    1.442557e+00
    9.316387e-01    5.491594e+01    1.264605e+01    1.589256e+08    1.179854e-08    3.527889e-11    1.145199e-08    1.993727e-09   -2.620000e+00    6.845864e-01    1.434579e+00
    9.373245e-01    5.713808e+01    1.252842e+01    1.584096e+08    1.179845e-08    3.428708e-11    1.144528e-08    1.993251e-09   -2.610000e+00    6.845864e-01    1.426610e+00
    9.430397e-01    5.939540e+01    1.241118e+01    1.578853e+08    1.179836e-08    3.332667e-11    1.143854e-08    1.992776e-09   -2.600000e+00    6.845864e-01    1.418650e+00
    9.487874e-01    6.168609e+01    1.229434e+01    1.573532e+08    1.179828e-08    3.239655e-11    1.143178e-08    1.992303e-09   -2.590000e+00    6.845864e-01    1.410698e+00
    9.545689e-01    6.400847e+01    1.217789e+01    1.568136e+08    1.179820e-08    3.149565e-11    1.142498e-08    1.991830e-09   -2.580000e+00    6.845864e-01    1.402755e+00
    9.603875e-01    6.636092e+01    1.206184e+01    1.562670e+08    1.179813e-08    3.062293e-11    1.141815e-08    1.991358e-09   -2.570000e+00    6.845864e-01    1.394820e+00
    9.662449e-01    6.874196e+01    1.194621e+01    1.557137e+08    1.179806e-08    2.977742e-11    1.141131e-08    1.990888e-09   -2.560000e+00    6.845864e-01    1.386894e+00
    9.721435e-01    7.115018e+01    1.183099e+01    1.551541e+08    1.179800e-08    2.895815e-11    1.140443e-08    1.990418e-09   -2.550000e+00    6.845864e-01    1.378976e+00
    9.780854e-01    7.358430e+01    1.171619e+01    1.545884e+08    1.179794e-08    2.816421e-11    1.139751e-08    1.989949e-09   -2.540000e+00    6.845864e-01    1.371067e+00
    9.840736e-01    7.604319e+01    1.160180e+01    1.540171e+08    1.179789e-08    2.739472e-11    1.139058e-08    1.989481e-09   -2.530000e+00    6.845864e-01    1.363167e+00
    9.901087e-01    7.852575e+01    1.148785e+01    1.534403e+08    1.179783e-08    2.664884e-11    1.138362e-08    1.989012e-09   -2.520000e+00    6.845864e-01    1.355275e+00
    9.961932e-01    8.103101e+01    1.137432e+01    1.528583e+08    1.179778e-08    2.592575e-11    1.137662e-08    1.988545e-09   -2.510000e+00    6.845864e-01    1.347391e+00
    1.002329e+00    8.355814e+01    1.126122e+01    1.522712e+08    1.179773e-08    2.522466e-11    1.136961e-08    1.988078e-09   -2.500000e+00    6.845864e-01    1.339516e+00
    1.008519e+00    8.610642e+01    1.114857e+01    1.516795e+08    1.179767e-08    2.454481e-11    1.136256e-08    1.987612e-09   -2.490000e+00    6.845864e-01    1.331649e+00
    1.014763e+00    8.867521e+01    1.103636e+01    1.510831e+08    1.179763e-08    2.388550e-11    1.135548e-08    1.987146e-09   -2.480000e+00    6.845864e-01    1.323791e+00
    1.021064e+00    9.126396e+01    1.092459e+01    1.504824e+08    1.179757e-08    2.324600e-11    1.134838e-08    1.986680e-09   -2.470000e+00    6.845864e-01    1.315941e+00
    1.027425e+00    9.387222e+01    1.081326e+01    1.498775e+08    1.179752e-08    2.262566e-11    1.134125e-08    1.986214e-09   -2.460000e+00    6.845864e-01    1.308100e+00
    1.033845e+00    9.649960e+01    1.070239e+01    1.492684e+08    1.179746e-08    2.202382e-11    1.133409e-08    1.985749e-09   -2.450000e+00    6.845864e-01    1.300266e+00
    1.040328e+00    9.914586e+01    1.059197e+01    1.486554e+08    1.179740e-08    2.143986e-11    1.132691e-08    1.985283e-09   -2.440000e+00    6.845864e-01    1.292442e+00
    1.046875e+00    1.018108e+02    1.048201e+01    1.480387e+08    1.179735e-08    2.087318e-11    1.131970e-08    1.984817e-09   -2.430000e+00    6.845864e-01    1.284625e+00
    1.053488e+00    1.044943e+02    1.037251e+01    1.474183e+08    1.179728e-08    2.032320e-11    1.131245e-08    1.984351e-09   -2.420000e+00    6.845864e-01    1.276817e+00
    1.060167e+00    1.071962e+02    1.026347e+01    1.467942e+08    1.179721e-08    1.978937e-11    1.130519e-08    1.983885e-09   -2.410000e+00    6.845864e-01    1.269017e+00
    1.066916e+00    1.099166e+02    1.015489e+01    1.461668e+08    1.179714e-08    1.927114e-11    1.129789e-08    1.983419e-09   -2.400000e+00    6.845864e-01    1.261226e+00
    1.073736e+00    1.126555e+02    1.004678e+01    1.455360e+08    1.179706e-08    1.876800e-11    1.129057e-08    1.982952e-09   -2.390000e+00    6.845864e-01    1.253442e+00
    1.080628e+00    1.154132e+02    9.939135e+00    1.449019e+08    1.179697e-08    1.827945e-11    1.128321e-08    1.982485e-09   -2.380000e+00    6.845864e-01    1.245667e+00
    1.087594e+00    1.181896e+02    9.831965e+00    1.442646e+08    1.179689e-08    1.780502e-11    1.127583e-08    1.982017e-09   -2.370000e+00    6.845864e-01    1.237900e+00
    1.094636e+00    1.209852e+02    9.725275e+00    1.436243e+08    1.179679e-08    1.734424e-11    1.126842e-08    1.981549e-09   -2.360000e+00    6.845864e-01    1.230142e+00
    1.101756e+00    1.237999e+02    9.619055e+00    1.429809e+08    1.179668e-08    1.689667e-11    1.126099e-08    1.981081e-09   -2.350000e+00    6.845864e-01    1.222391e+00
    1.108955e+00    1.266344e+02    9.513315e+00    1.423345e+08    1.179657e-08    1.646187e-11    1.125352e-08    1.980611e-09   -2.340000e+00    6.845864e-01    1.214649e+00
    1.116234e+00    1.294888e+02    9.408060e+00    1.416851e+08    1.179645e-08    1.603944e-11    1.124603e-08    1.980141e-09   -2.330000e+00    6.845864e-01    1.206915e+00
    1.123598e+00    1.323637e+02    9.303285e+00    1.410329e+08    1.179632e-08    1.562897e-11    1.123850e-08    1.979669e-09   -2.320000e+00    6.845864e-01    1.199189e+00
    1.131045e+00    1.352592e+02    9.198995e+00    1.403780e+08    1.179618e-08    1.523008e-11    1.123095e-08    1.979197e-09   -2.310000e+00    6.845864e-01    1.191471e+00
    1.138579e+00    1.381760e+02    9.095195e+00    1.397202e+08    1.179604e-08    1.484240e-11    1.122337e-08    1.978724e-09   -2.300000e+00    6.845864e-01    1.183762e+00
    1.146202e+00    1.411145e+02    8.991885e+00    1.390597e+08    1.179588e-08    1.446558e-11    1.121575e-08    1.978250e-09   -2.290000e+00    6.845864e-01    1.176060e+00
    1.153914e+00    1.440752e+02    8.889065e+00    1.383966e+08    1.179572e-08    1.409926e-11    1.120811e-08    1.977774e-09   -2.280000e+00    6.845864e-01    1.168366e+00
    1.161719e+00    1.470587e+02    8.786740e+00    1.377309e+08    1.179554e-08    1.374311e-11    1.120044e-08    1.977298e-09   -2.270000e+00    6.845864e-01    1.160681e+00
    1.169617e+00    1.500654e+02    8.684915e+00    1.370625e+08    1.179535e-08    1.339682e-11    1.119274e-08    1.976820e-09   -2.260000e+00    6.845864e-01    1.153003e+00
    1.177612e+00    1.530961e+02    8.583580e+00    1.363916e+08    1.179515e-08    1.306008e-11    1.118500e-08    1.976340e-09   -2.250000e+00    6.845864e-01    1.145334e+00
    1.185705e+00    1.561512e+02    8.482750e+00    1.357181e+08    1.179494e-08    1.273257e-11    1.117724e-08    1.975859e-09   -2.240000e+00    6.845864e-01    1.137672e+00
    1.193897e+00    1.592313e+02    8.382420e+00    1.350421e+08    1.179471e-08    1.241404e-11    1.116945e-08    1.975376e-09   -2.230000e+00    6.845864e-01    1.130019e+00
    1.202193e+00    1.623373e+02    8.282595e+00    1.343637e+08    1.179448e-08    1.210417e-11    1.116162e-08    1.974892e-09   -2.220000e+00    6.845864e-01    1.122374e+00
