# GF180MCU-D pfet_03v3 gm/ID Processed Lookup Table
# Corner: typical
# Temperature: -40C
# W = 2.0 um
# L = 5 um (5000 nm)
# Columns: gm/id [1/V]  gm/gds [V/V]  id/W [A/m]  ft [Hz]  Cgg/W [F/m]  Cgd/W [F/m]  Cgs/W [F/m]  Cdb/W [F/m]  vgs [V]  vth [V]  vdsat [V]
# vdsat = BSIM saturation voltage (|VDS|_sat, positive); use for headroom / saturation / cascode-bias calculations
#           gm/id          gm/gds            id/W              ft           Cgg/W           Cgd/W           Cgs/W           Cdb/W             vgs             vth           vdsat
    6.275468e-01    5.236470e+00    1.592167e+01    9.627350e+07    1.651764e-08    2.485634e-10    1.640150e-08    2.891698e-09   -3.300000e+00    8.383645e-01    1.825008e+00
    6.331243e-01    5.438118e+00    1.582175e+01    9.653986e+07    1.651418e-08    2.402429e-10    1.639610e-08    2.890933e-09   -3.290000e+00    8.383645e-01    1.816662e+00
    6.387560e-01    5.652551e+00    1.572133e+01    9.679976e+07    1.651087e-08    2.322153e-10    1.639055e-08    2.890167e-09   -3.280000e+00    8.383645e-01    1.808326e+00
    6.444236e-01    5.880779e+00    1.562078e+01    9.705267e+07    1.650771e-08    2.244710e-10    1.638484e-08    2.889400e-09   -3.270000e+00    8.383645e-01    1.800000e+00
    6.501308e-01    6.123906e+00    1.552000e+01    9.729826e+07    1.650469e-08    2.170003e-10    1.637899e-08    2.888631e-09   -3.260000e+00    8.383645e-01    1.791684e+00
    6.558739e-01    6.383109e+00    1.541899e+01    9.753591e+07    1.650182e-08    2.097940e-10    1.637300e-08    2.887863e-09   -3.250000e+00    8.383645e-01    1.783378e+00
    6.616506e-01    6.659667e+00    1.531775e+01    9.776518e+07    1.649907e-08    2.028430e-10    1.636688e-08    2.887095e-09   -3.240000e+00    8.383645e-01    1.775082e+00
    6.674576e-01    6.954956e+00    1.521628e+01    9.798553e+07    1.649645e-08    1.961384e-10    1.636061e-08    2.886327e-09   -3.230000e+00    8.383645e-01    1.766795e+00
    6.732915e-01    7.270456e+00    1.511462e+01    9.819640e+07    1.649396e-08    1.896717e-10    1.635423e-08    2.885559e-09   -3.220000e+00    8.383645e-01    1.758519e+00
    6.791479e-01    7.607745e+00    1.501276e+01    9.839718e+07    1.649158e-08    1.834345e-10    1.634772e-08    2.884793e-09   -3.210000e+00    8.383645e-01    1.750252e+00
    6.850243e-01    7.968525e+00    1.491071e+01    9.858740e+07    1.648933e-08    1.774188e-10    1.634110e-08    2.884028e-09   -3.200000e+00    8.383645e-01    1.741995e+00
    6.909156e-01    8.354596e+00    1.480848e+01    9.876643e+07    1.648718e-08    1.716165e-10    1.633435e-08    2.883266e-09   -3.190000e+00    8.383645e-01    1.733748e+00
    6.968180e-01    8.767873e+00    1.470609e+01    9.893366e+07    1.648514e-08    1.660202e-10    1.632750e-08    2.882504e-09   -3.180000e+00    8.383645e-01    1.725511e+00
    7.027275e-01    9.210387e+00    1.460354e+01    9.908859e+07    1.648319e-08    1.606224e-10    1.632054e-08    2.881745e-09   -3.170000e+00    8.383645e-01    1.717283e+00
    7.086400e-01    9.684277e+00    1.450084e+01    9.923069e+07    1.648135e-08    1.554159e-10    1.631348e-08    2.880988e-09   -3.160000e+00    8.383645e-01    1.709066e+00
    7.145510e-01    1.019178e+01    1.439802e+01    9.935946e+07    1.647961e-08    1.503938e-10    1.630632e-08    2.880234e-09   -3.150000e+00    8.383645e-01    1.700858e+00
    7.204564e-01    1.073522e+01    1.429509e+01    9.947438e+07    1.647795e-08    1.455494e-10    1.629906e-08    2.879482e-09   -3.140000e+00    8.383645e-01    1.692659e+00
    7.263523e-01    1.131703e+01    1.419205e+01    9.957502e+07    1.647639e-08    1.408763e-10    1.629171e-08    2.878733e-09   -3.130000e+00    8.383645e-01    1.684470e+00
    7.322346e-01    1.193971e+01    1.408892e+01    9.966098e+07    1.647490e-08    1.363680e-10    1.628427e-08    2.877988e-09   -3.120000e+00    8.383645e-01    1.676291e+00
    7.381000e-01    1.260580e+01    1.398572e+01    9.973191e+07    1.647351e-08    1.320187e-10    1.627675e-08    2.877245e-09   -3.110000e+00    8.383645e-01    1.668122e+00
    7.439453e-01    1.331791e+01    1.388247e+01    9.978762e+07    1.647218e-08    1.278224e-10    1.626913e-08    2.876505e-09   -3.100000e+00    8.383645e-01    1.659962e+00
    7.497676e-01    1.407865e+01    1.377917e+01    9.982785e+07    1.647093e-08    1.237735e-10    1.626144e-08    2.875769e-09   -3.090000e+00    8.383645e-01    1.651812e+00
    7.555640e-01    1.489065e+01    1.367585e+01    9.985242e+07    1.646976e-08    1.198666e-10    1.625367e-08    2.875036e-09   -3.080000e+00    8.383645e-01    1.643671e+00
    7.613331e-01    1.575648e+01    1.357252e+01    9.986132e+07    1.646864e-08    1.160963e-10    1.624582e-08    2.874307e-09   -3.070000e+00    8.383645e-01    1.635540e+00
    7.670729e-01    1.667871e+01    1.346919e+01    9.985456e+07    1.646760e-08    1.124577e-10    1.623790e-08    2.873581e-09   -3.060000e+00    8.383645e-01    1.627419e+00
    7.727823e-01    1.765976e+01    1.336589e+01    9.983219e+07    1.646662e-08    1.089458e-10    1.622990e-08    2.872859e-09   -3.050000e+00    8.383645e-01    1.619307e+00
    7.784611e-01    1.870200e+01    1.326262e+01    9.979439e+07    1.646570e-08    1.055560e-10    1.622184e-08    2.872139e-09   -3.040000e+00    8.383645e-01    1.611204e+00
    7.841083e-01    1.980766e+01    1.315940e+01    9.974130e+07    1.646483e-08    1.022837e-10    1.621372e-08    2.871424e-09   -3.030000e+00    8.383645e-01    1.603111e+00
    7.897249e-01    2.097877e+01    1.305626e+01    9.967324e+07    1.646403e-08    9.912455e-11    1.620552e-08    2.870713e-09   -3.020000e+00    8.383645e-01    1.595028e+00
    7.953118e-01    2.221722e+01    1.295319e+01    9.959057e+07    1.646327e-08    9.607440e-11    1.619726e-08    2.870004e-09   -3.010000e+00    8.383645e-01    1.586954e+00
    8.008703e-01    2.352467e+01    1.285022e+01    9.949369e+07    1.646256e-08    9.312910e-11    1.618894e-08    2.869300e-09   -3.000000e+00    8.383645e-01    1.578889e+00
    8.064016e-01    2.490255e+01    1.274737e+01    9.938294e+07    1.646191e-08    9.028485e-11    1.618056e-08    2.868599e-09   -2.990000e+00    8.383645e-01    1.570833e+00
    8.119080e-01    2.635207e+01    1.264464e+01    9.925888e+07    1.646129e-08    8.753785e-11    1.617212e-08    2.867901e-09   -2.980000e+00    8.383645e-01    1.562787e+00
    8.173914e-01    2.787413e+01    1.254204e+01    9.912190e+07    1.646072e-08    8.488450e-11    1.616362e-08    2.867207e-09   -2.970000e+00    8.383645e-01    1.554751e+00
    8.228545e-01    2.946943e+01    1.243961e+01    9.897256e+07    1.646019e-08    8.232135e-11    1.615507e-08    2.866517e-09   -2.960000e+00    8.383645e-01    1.546724e+00
    8.283000e-01    3.113836e+01    1.233733e+01    9.881134e+07    1.645971e-08    7.984505e-11    1.614646e-08    2.865830e-09   -2.950000e+00    8.383645e-01    1.538706e+00
    8.337310e-01    3.288108e+01    1.223523e+01    9.863883e+07    1.645926e-08    7.745240e-11    1.613780e-08    2.865145e-09   -2.940000e+00    8.383645e-01    1.530697e+00
    8.391503e-01    3.469746e+01    1.213332e+01    9.845551e+07    1.645884e-08    7.514030e-11    1.612909e-08    2.864465e-09   -2.930000e+00    8.383645e-01    1.522697e+00
    8.445610e-01    3.658714e+01    1.203160e+01    9.826191e+07    1.645847e-08    7.290575e-11    1.612034e-08    2.863788e-09   -2.920000e+00    8.383645e-01    1.514707e+00
    8.499663e-01    3.854950e+01    1.193009e+01    9.805853e+07    1.645812e-08    7.074600e-11    1.611152e-08    2.863115e-09   -2.910000e+00    8.383645e-01    1.506726e+00
    8.553695e-01    4.058373e+01    1.182880e+01    9.784591e+07    1.645781e-08    6.865815e-11    1.610267e-08    2.862444e-09   -2.900000e+00    8.383645e-01    1.498755e+00
    8.607736e-01    4.268879e+01    1.172774e+01    9.762453e+07    1.645752e-08    6.663970e-11    1.609376e-08    2.861776e-09   -2.890000e+00    8.383645e-01    1.490792e+00
    8.661819e-01    4.486346e+01    1.162691e+01    9.739485e+07    1.645725e-08    6.468800e-11    1.608481e-08    2.861112e-09   -2.880000e+00    8.383645e-01    1.482839e+00
    8.715977e-01    4.710639e+01    1.152632e+01    9.715732e+07    1.645702e-08    6.280070e-11    1.607581e-08    2.860449e-09   -2.870000e+00    8.383645e-01    1.474894e+00
    8.770237e-01    4.941606e+01    1.142598e+01    9.691238e+07    1.645681e-08    6.097540e-11    1.606678e-08    2.859791e-09   -2.860000e+00    8.383645e-01    1.466959e+00
    8.824628e-01    5.179080e+01    1.132590e+01    9.666037e+07    1.645662e-08    5.920985e-11    1.605769e-08    2.859135e-09   -2.850000e+00    8.383645e-01    1.459033e+00
    8.879178e-01    5.422896e+01    1.122609e+01    9.640177e+07    1.645646e-08    5.750190e-11    1.604857e-08    2.858482e-09   -2.840000e+00    8.383645e-01    1.451116e+00
    8.933923e-01    5.672874e+01    1.112655e+01    9.613689e+07    1.645632e-08    5.584945e-11    1.603939e-08    2.857830e-09   -2.830000e+00    8.383645e-01    1.443209e+00
    8.988881e-01    5.928828e+01    1.102728e+01    9.586610e+07    1.645619e-08    5.425050e-11    1.603019e-08    2.857183e-09   -2.820000e+00    8.383645e-01    1.435310e+00
    9.044079e-01    6.190572e+01    1.092831e+01    9.558962e+07    1.645609e-08    5.270315e-11    1.602094e-08    2.856537e-09   -2.810000e+00    8.383645e-01    1.427420e+00
    9.099552e-01    6.457926e+01    1.082961e+01    9.530788e+07    1.645600e-08    5.120550e-11    1.601165e-08    2.855894e-09   -2.800000e+00    8.383645e-01    1.419539e+00
    9.155315e-01    6.730699e+01    1.073121e+01    9.502112e+07    1.645592e-08    4.975578e-11    1.600231e-08    2.855252e-09   -2.790000e+00    8.383645e-01    1.411668e+00
    9.211389e-01    7.008712e+01    1.063312e+01    9.472953e+07    1.645586e-08    4.835229e-11    1.599294e-08    2.854613e-09   -2.780000e+00    8.383645e-01    1.403805e+00
    9.267806e-01    7.291781e+01    1.053533e+01    9.443343e+07    1.645581e-08    4.699338e-11    1.598353e-08    2.853977e-09   -2.770000e+00    8.383645e-01    1.395951e+00
    9.324582e-01    7.579741e+01    1.043784e+01    9.413298e+07    1.645577e-08    4.567747e-11    1.597409e-08    2.853342e-09   -2.760000e+00    8.383645e-01    1.388106e+00
    9.381742e-01    7.872421e+01    1.034067e+01    9.382847e+07    1.645575e-08    4.440303e-11    1.596460e-08    2.852708e-09   -2.750000e+00    8.383645e-01    1.380271e+00
    9.439306e-01    8.169663e+01    1.024381e+01    9.352003e+07    1.645574e-08    4.316860e-11    1.595508e-08    2.852077e-09   -2.740000e+00    8.383645e-01    1.372444e+00
    9.497289e-01    8.471313e+01    1.014728e+01    9.320780e+07    1.645573e-08    4.197277e-11    1.594552e-08    2.851448e-09   -2.730000e+00    8.383645e-01    1.364625e+00
    9.555714e-01    8.777235e+01    1.005107e+01    9.289207e+07    1.645573e-08    4.081418e-11    1.593592e-08    2.850820e-09   -2.720000e+00    8.383645e-01    1.356816e+00
    9.614598e-01    9.087286e+01    9.955195e+00    9.257285e+07    1.645574e-08    3.969154e-11    1.592629e-08    2.850193e-09   -2.710000e+00    8.383645e-01    1.349016e+00
    9.673964e-01    9.401348e+01    9.859645e+00    9.225036e+07    1.645575e-08    3.860358e-11    1.591662e-08    2.849568e-09   -2.700000e+00    8.383645e-01    1.341224e+00
    9.733825e-01    9.719302e+01    9.764430e+00    9.192467e+07    1.645578e-08    3.754911e-11    1.590691e-08    2.848944e-09   -2.690000e+00    8.383645e-01    1.333441e+00
    9.794199e-01    1.004104e+02    9.669555e+00    9.159598e+07    1.645581e-08    3.652696e-11    1.589716e-08    2.848321e-09   -2.680000e+00    8.383645e-01    1.325667e+00
    9.855107e-01    1.036648e+02    9.575020e+00    9.126437e+07    1.645583e-08    3.553602e-11    1.588738e-08    2.847700e-09   -2.670000e+00    8.383645e-01    1.317902e+00
    9.916563e-01    1.069552e+02    9.480830e+00    9.092995e+07    1.645587e-08    3.457522e-11    1.587757e-08    2.847078e-09   -2.660000e+00    8.383645e-01    1.310146e+00
    9.978587e-01    1.102809e+02    9.386985e+00    9.059280e+07    1.645590e-08    3.364351e-11    1.586772e-08    2.846459e-09   -2.650000e+00    8.383645e-01    1.302398e+00
    1.004118e+00    1.136412e+02    9.293495e+00    9.025299e+07    1.645594e-08    3.273992e-11    1.585783e-08    2.845840e-09   -2.640000e+00    8.383645e-01    1.294659e+00
    1.010439e+00    1.170355e+02    9.200350e+00    8.991062e+07    1.645597e-08    3.186347e-11    1.584792e-08    2.845222e-09   -2.630000e+00    8.383645e-01    1.286929e+00
    1.016820e+00    1.204632e+02    9.107565e+00    8.956573e+07    1.645601e-08    3.101324e-11    1.583796e-08    2.844604e-09   -2.620000e+00    8.383645e-01    1.279207e+00
    1.023263e+00    1.239241e+02    9.015140e+00    8.921843e+07    1.645604e-08    3.018837e-11    1.582796e-08    2.843987e-09   -2.610000e+00    8.383645e-01    1.271494e+00
    1.029772e+00    1.274176e+02    8.923070e+00    8.886879e+07    1.645607e-08    2.938798e-11    1.581794e-08    2.843370e-09   -2.600000e+00    8.383645e-01    1.263790e+00
    1.036347e+00    1.309436e+02    8.831365e+00    8.851687e+07    1.645610e-08    2.861125e-11    1.580787e-08    2.842754e-09   -2.590000e+00    8.383645e-01    1.256094e+00
    1.042988e+00    1.345018e+02    8.740025e+00    8.816267e+07    1.645613e-08    2.785740e-11    1.579778e-08    2.842137e-09   -2.580000e+00    8.383645e-01    1.248407e+00
    1.049700e+00    1.380922e+02    8.649050e+00    8.780631e+07    1.645615e-08    2.712566e-11    1.578764e-08    2.841521e-09   -2.570000e+00    8.383645e-01    1.240728e+00
    1.056483e+00    1.417146e+02    8.558445e+00    8.744778e+07    1.645617e-08    2.641530e-11    1.577747e-08    2.840905e-09   -2.560000e+00    8.383645e-01    1.233058e+00
    1.063337e+00    1.453691e+02    8.468215e+00    8.708718e+07    1.645618e-08    2.572561e-11    1.576726e-08    2.840288e-09   -2.550000e+00    8.383645e-01    1.225397e+00
    1.070266e+00    1.490557e+02    8.378355e+00    8.672445e+07    1.645619e-08    2.505591e-11    1.575703e-08    2.839671e-09   -2.540000e+00    8.383645e-01    1.217744e+00
    1.077270e+00    1.527746e+02    8.288875e+00    8.635974e+07    1.645619e-08    2.440554e-11    1.574675e-08    2.839054e-09   -2.530000e+00    8.383645e-01    1.210100e+00
    1.084352e+00    1.565259e+02    8.199770e+00    8.599305e+07    1.645618e-08    2.377387e-11    1.573643e-08    2.838437e-09   -2.520000e+00    8.383645e-01    1.202464e+00
    1.091513e+00    1.603099e+02    8.111045e+00    8.562440e+07    1.645616e-08    2.316029e-11    1.572608e-08    2.837818e-09   -2.510000e+00    8.383645e-01    1.194836e+00
    1.098754e+00    1.641267e+02    8.022705e+00    8.525378e+07    1.645613e-08    2.256422e-11    1.571569e-08    2.837200e-09   -2.500000e+00    8.383645e-01    1.187217e+00
    1.106078e+00    1.679768e+02    7.934745e+00    8.488131e+07    1.645610e-08    2.198508e-11    1.570527e-08    2.836580e-09   -2.490000e+00    8.383645e-01    1.179607e+00
    1.113485e+00    1.718605e+02    7.847175e+00    8.450689e+07    1.645606e-08    2.142233e-11    1.569480e-08    2.835960e-09   -2.480000e+00    8.383645e-01    1.172005e+00
    1.120980e+00    1.757784e+02    7.759990e+00    8.413071e+07    1.645601e-08    2.087545e-11    1.568431e-08    2.835339e-09   -2.470000e+00    8.383645e-01    1.164411e+00
    1.128560e+00    1.797306e+02    7.673200e+00    8.375264e+07    1.645594e-08    2.034392e-11    1.567377e-08    2.834717e-09   -2.460000e+00    8.383645e-01    1.156826e+00
    1.136230e+00    1.837179e+02    7.586800e+00    8.337279e+07    1.645587e-08    1.982726e-11    1.566319e-08    2.834093e-09   -2.450000e+00    8.383645e-01    1.149249e+00
    1.143991e+00    1.877406e+02    7.500795e+00    8.299111e+07    1.645577e-08    1.932499e-11    1.565258e-08    2.833468e-09   -2.440000e+00    8.383645e-01    1.141680e+00
    1.151845e+00    1.917995e+02    7.415185e+00    8.260770e+07    1.645568e-08    1.883667e-11    1.564193e-08    2.832842e-09   -2.430000e+00    8.383645e-01    1.134120e+00
    1.159795e+00    1.958950e+02    7.329970e+00    8.222252e+07    1.645556e-08    1.836185e-11    1.563124e-08    2.832214e-09   -2.420000e+00    8.383645e-01    1.126568e+00
    1.167840e+00    2.000277e+02    7.245160e+00    8.183557e+07    1.645543e-08    1.790011e-11    1.562051e-08    2.831585e-09   -2.410000e+00    8.383645e-01    1.119024e+00
    1.175984e+00    2.041985e+02    7.160750e+00    8.144692e+07    1.645529e-08    1.745103e-11    1.560974e-08    2.830955e-09   -2.400000e+00    8.383645e-01    1.111489e+00
    1.184230e+00    2.084079e+02    7.076740e+00    8.105657e+07    1.645513e-08    1.701423e-11    1.559893e-08    2.830322e-09   -2.390000e+00    8.383645e-01    1.103962e+00
    1.192578e+00    2.126567e+02    6.993140e+00    8.066450e+07    1.645495e-08    1.658932e-11    1.558808e-08    2.829688e-09   -2.380000e+00    8.383645e-01    1.096443e+00
    1.201031e+00    2.169456e+02    6.909945e+00    8.027076e+07    1.645476e-08    1.617594e-11    1.557719e-08    2.829051e-09   -2.370000e+00    8.383645e-01    1.088932e+00
    1.209592e+00    2.212754e+02    6.827160e+00    7.987533e+07    1.645456e-08    1.577372e-11    1.556626e-08    2.828413e-09   -2.360000e+00    8.383645e-01    1.081430e+00
    1.218260e+00    2.256468e+02    6.744785e+00    7.947821e+07    1.645434e-08    1.538234e-11    1.555529e-08    2.827772e-09   -2.350000e+00    8.383645e-01    1.073935e+00
    1.227042e+00    2.300609e+02    6.662820e+00    7.907947e+07    1.645409e-08    1.500145e-11    1.554427e-08    2.827129e-09   -2.340000e+00    8.383645e-01    1.066449e+00
    1.235938e+00    2.345185e+02    6.581270e+00    7.867911e+07    1.645383e-08    1.463073e-11    1.553321e-08    2.826483e-09   -2.330000e+00    8.383645e-01    1.058971e+00
    1.244948e+00    2.390202e+02    6.500140e+00    7.827704e+07    1.645355e-08    1.426989e-11    1.552212e-08    2.825835e-09   -2.320000e+00    8.383645e-01    1.051502e+00
    1.254077e+00    2.435671e+02    6.419425e+00    7.787335e+07    1.645325e-08    1.391862e-11    1.551097e-08    2.825184e-09   -2.310000e+00    8.383645e-01    1.044040e+00
    1.263328e+00    2.481603e+02    6.339130e+00    7.746805e+07    1.645293e-08    1.357663e-11    1.549978e-08    2.824531e-09   -2.300000e+00    8.383645e-01    1.036586e+00
    1.272702e+00    2.528006e+02    6.259260e+00    7.706116e+07    1.645259e-08    1.324364e-11    1.548855e-08    2.823874e-09   -2.290000e+00    8.383645e-01    1.029141e+00
    1.282202e+00    2.574890e+02    6.179810e+00    7.665263e+07    1.645222e-08    1.291939e-11    1.547727e-08    2.823215e-09   -2.280000e+00    8.383645e-01    1.021703e+00
    1.291831e+00    2.622266e+02    6.100785e+00    7.624253e+07    1.645184e-08    1.260361e-11    1.546594e-08    2.822553e-09   -2.270000e+00    8.383645e-01    1.014274e+00
    1.301592e+00    2.670144e+02    6.022185e+00    7.583079e+07    1.645143e-08    1.229606e-11    1.545457e-08    2.821887e-09   -2.260000e+00    8.383645e-01    1.006853e+00
    1.311487e+00    2.718534e+02    5.944015e+00    7.541747e+07    1.645100e-08    1.199649e-11    1.544315e-08    2.821218e-09   -2.250000e+00    8.383645e-01    9.994394e-01
    1.321519e+00    2.767446e+02    5.866275e+00    7.500252e+07    1.645054e-08    1.170466e-11    1.543169e-08    2.820546e-09   -2.240000e+00    8.383645e-01    9.920340e-01
    1.331691e+00    2.816896e+02    5.788970e+00    7.458602e+07    1.645006e-08    1.142035e-11    1.542017e-08    2.819869e-09   -2.230000e+00    8.383645e-01    9.846367e-01
    1.342007e+00    2.866891e+02    5.712095e+00    7.416792e+07    1.644956e-08    1.114335e-11    1.540861e-08    2.819190e-09   -2.220000e+00    8.383645e-01    9.772473e-01
