# GF180MCU-D pfet_03v3 gm/ID Processed Lookup Table
# Corner: typical
# Temperature: -40C
# W = 2.0 um
# L = 3 um (3000 nm)
# Columns: gm/id [1/V]  gm/gds [V/V]  id/W [A/m]  ft [Hz]  Cgg/W [F/m]  Cgd/W [F/m]  Cgs/W [F/m]  Cdb/W [F/m]  vgs [V]  vth [V]  vdsat [V]
# vdsat = BSIM saturation voltage (|VDS|_sat, positive); use for headroom / saturation / cascode-bias calculations
#           gm/id          gm/gds            id/W              ft           Cgg/W           Cgd/W           Cgs/W           Cdb/W             vgs             vth           vdsat
    6.141429e-01    4.676226e+00    2.664887e+01    2.615731e+08    9.958070e-09    1.504649e-10    9.845705e-09    1.723730e-09   -3.300000e+00    8.403830e-01    1.840840e+00
    6.196231e-01    4.841455e+00    2.648521e+01    2.623400e+08    9.956040e-09    1.454770e-10    9.842660e-09    1.723286e-09   -3.290000e+00    8.403830e-01    1.832473e+00
    6.251628e-01    5.016388e+00    2.632065e+01    2.630920e+08    9.954105e-09    1.406629e-10    9.839520e-09    1.722840e-09   -3.280000e+00    8.403830e-01    1.824116e+00
    6.307442e-01    5.201742e+00    2.615589e+01    2.638283e+08    9.952255e-09    1.360168e-10    9.836290e-09    1.722395e-09   -3.270000e+00    8.403830e-01    1.815768e+00
    6.363707e-01    5.398286e+00    2.599070e+01    2.645476e+08    9.950490e-09    1.315333e-10    9.832975e-09    1.721948e-09   -3.260000e+00    8.403830e-01    1.807430e+00
    6.420400e-01    5.606850e+00    2.582510e+01    2.652488e+08    9.948800e-09    1.272067e-10    9.829570e-09    1.721501e-09   -3.250000e+00    8.403830e-01    1.799102e+00
    6.477502e-01    5.828326e+00    2.565909e+01    2.659306e+08    9.947195e-09    1.230319e-10    9.826085e-09    1.721053e-09   -3.240000e+00    8.403830e-01    1.790783e+00
    6.534982e-01    6.063660e+00    2.549269e+01    2.665915e+08    9.945665e-09    1.190035e-10    9.822520e-09    1.720606e-09   -3.230000e+00    8.403830e-01    1.782474e+00
    6.592813e-01    6.313871e+00    2.532591e+01    2.672303e+08    9.944205e-09    1.151166e-10    9.818880e-09    1.720159e-09   -3.220000e+00    8.403830e-01    1.774175e+00
    6.650967e-01    6.580044e+00    2.515876e+01    2.678457e+08    9.942815e-09    1.113663e-10    9.815165e-09    1.719712e-09   -3.210000e+00    8.403830e-01    1.765885e+00
    6.709406e-01    6.863322e+00    2.499125e+01    2.684358e+08    9.941495e-09    1.077478e-10    9.811380e-09    1.719265e-09   -3.200000e+00    8.403830e-01    1.757605e+00
    6.768101e-01    7.164927e+00    2.482341e+01    2.689995e+08    9.940240e-09    1.042563e-10    9.807525e-09    1.718820e-09   -3.190000e+00    8.403830e-01    1.749334e+00
    6.827011e-01    7.486140e+00    2.465524e+01    2.695350e+08    9.939050e-09    1.008876e-10    9.803605e-09    1.718374e-09   -3.180000e+00    8.403830e-01    1.741073e+00
    6.886098e-01    7.828302e+00    2.448677e+01    2.700408e+08    9.937920e-09    9.763720e-11    9.799620e-09    1.717931e-09   -3.170000e+00    8.403830e-01    1.732821e+00
    6.945322e-01    8.192819e+00    2.431801e+01    2.705154e+08    9.936845e-09    9.450085e-11    9.795575e-09    1.717488e-09   -3.160000e+00    8.403830e-01    1.724578e+00
    7.004644e-01    8.581154e+00    2.414899e+01    2.709575e+08    9.935825e-09    9.147455e-11    9.791465e-09    1.717047e-09   -3.150000e+00    8.403830e-01    1.716345e+00
    7.064024e-01    8.994806e+00    2.397971e+01    2.713652e+08    9.934865e-09    8.855425e-11    9.787300e-09    1.716607e-09   -3.140000e+00    8.403830e-01    1.708122e+00
    7.123416e-01    9.435322e+00    2.381021e+01    2.717375e+08    9.933950e-09    8.573615e-11    9.783080e-09    1.716169e-09   -3.130000e+00    8.403830e-01    1.699907e+00
    7.182787e-01    9.904276e+00    2.364050e+01    2.720729e+08    9.933090e-09    8.301660e-11    9.778805e-09    1.715732e-09   -3.120000e+00    8.403830e-01    1.691702e+00
    7.242094e-01    1.040325e+01    2.347060e+01    2.723703e+08    9.932275e-09    8.039200e-11    9.774475e-09    1.715296e-09   -3.110000e+00    8.403830e-01    1.683507e+00
    7.301300e-01    1.093383e+01    2.330055e+01    2.726285e+08    9.931510e-09    7.785890e-11    9.770100e-09    1.714863e-09   -3.100000e+00    8.403830e-01    1.675320e+00
    7.360372e-01    1.149758e+01    2.313036e+01    2.728467e+08    9.930785e-09    7.541390e-11    9.765670e-09    1.714432e-09   -3.090000e+00    8.403830e-01    1.667143e+00
    7.419275e-01    1.209604e+01    2.296006e+01    2.730240e+08    9.930105e-09    7.305385e-11    9.761195e-09    1.714002e-09   -3.080000e+00    8.403830e-01    1.658976e+00
    7.477985e-01    1.273069e+01    2.278968e+01    2.731601e+08    9.929460e-09    7.077560e-11    9.756675e-09    1.713573e-09   -3.070000e+00    8.403830e-01    1.650817e+00
    7.536472e-01    1.340293e+01    2.261923e+01    2.732541e+08    9.928860e-09    6.857615e-11    9.752105e-09    1.713148e-09   -3.060000e+00    8.403830e-01    1.642668e+00
    7.594725e-01    1.411407e+01    2.244875e+01    2.733063e+08    9.928295e-09    6.645265e-11    9.747500e-09    1.712723e-09   -3.050000e+00    8.403830e-01    1.634528e+00
    7.652718e-01    1.486532e+01    2.227826e+01    2.733163e+08    9.927765e-09    6.440230e-11    9.742845e-09    1.712301e-09   -3.040000e+00    8.403830e-01    1.626397e+00
    7.710448e-01    1.565773e+01    2.210778e+01    2.732845e+08    9.927270e-09    6.242240e-11    9.738155e-09    1.711881e-09   -3.030000e+00    8.403830e-01    1.618275e+00
    7.767904e-01    1.649223e+01    2.193734e+01    2.732110e+08    9.926810e-09    6.051035e-11    9.733425e-09    1.711462e-09   -3.020000e+00    8.403830e-01    1.610163e+00
    7.825085e-01    1.736958e+01    2.176697e+01    2.730967e+08    9.926375e-09    5.866365e-11    9.728655e-09    1.711046e-09   -3.010000e+00    8.403830e-01    1.602059e+00
    7.881997e-01    1.829035e+01    2.159669e+01    2.729420e+08    9.925975e-09    5.687995e-11    9.723845e-09    1.710632e-09   -3.000000e+00    8.403830e-01    1.593965e+00
    7.938644e-01    1.925492e+01    2.142653e+01    2.727478e+08    9.925605e-09    5.515685e-11    9.719000e-09    1.710220e-09   -2.990000e+00    8.403830e-01    1.585880e+00
    7.995042e-01    2.026351e+01    2.125651e+01    2.725153e+08    9.925260e-09    5.349220e-11    9.714120e-09    1.709809e-09   -2.980000e+00    8.403830e-01    1.577803e+00
    8.051202e-01    2.131614e+01    2.108664e+01    2.722453e+08    9.924940e-09    5.188380e-11    9.709210e-09    1.709402e-09   -2.970000e+00    8.403830e-01    1.569736e+00
    8.107144e-01    2.241261e+01    2.091697e+01    2.719391e+08    9.924645e-09    5.032965e-11    9.704260e-09    1.708995e-09   -2.960000e+00    8.403830e-01    1.561678e+00
    8.162889e-01    2.355256e+01    2.074750e+01    2.715980e+08    9.924375e-09    4.882769e-11    9.699285e-09    1.708591e-09   -2.950000e+00    8.403830e-01    1.553629e+00
    8.218462e-01    2.473543e+01    2.057825e+01    2.712233e+08    9.924125e-09    4.737605e-11    9.694270e-09    1.708189e-09   -2.940000e+00    8.403830e-01    1.545588e+00
    8.273889e-01    2.596058e+01    2.040926e+01    2.708162e+08    9.923900e-09    4.597288e-11    9.689230e-09    1.707788e-09   -2.930000e+00    8.403830e-01    1.537557e+00
    8.329196e-01    2.722708e+01    2.024053e+01    2.703782e+08    9.923695e-09    4.461641e-11    9.684155e-09    1.707390e-09   -2.920000e+00    8.403830e-01    1.529535e+00
    8.384416e-01    2.853399e+01    2.007209e+01    2.699108e+08    9.923510e-09    4.330494e-11    9.679055e-09    1.706993e-09   -2.910000e+00    8.403830e-01    1.521521e+00
    8.439576e-01    2.988019e+01    1.990395e+01    2.694152e+08    9.923340e-09    4.203682e-11    9.673925e-09    1.706598e-09   -2.900000e+00    8.403830e-01    1.513517e+00
    8.494705e-01    3.126451e+01    1.973614e+01    2.688928e+08    9.923190e-09    4.081049e-11    9.668765e-09    1.706205e-09   -2.890000e+00    8.403830e-01    1.505521e+00
    8.549839e-01    3.268567e+01    1.956865e+01    2.683450e+08    9.923055e-09    3.962442e-11    9.663575e-09    1.705813e-09   -2.880000e+00    8.403830e-01    1.497534e+00
    8.605001e-01    3.414235e+01    1.940152e+01    2.677729e+08    9.922935e-09    3.847716e-11    9.658360e-09    1.705423e-09   -2.870000e+00    8.403830e-01    1.489556e+00
    8.660230e-01    3.563319e+01    1.923476e+01    2.671780e+08    9.922830e-09    3.736731e-11    9.653120e-09    1.705035e-09   -2.860000e+00    8.403830e-01    1.481587e+00
    8.715548e-01    3.715682e+01    1.906837e+01    2.665611e+08    9.922740e-09    3.629350e-11    9.647855e-09    1.704649e-09   -2.850000e+00    8.403830e-01    1.473626e+00
    8.770991e-01    3.871186e+01    1.890238e+01    2.659236e+08    9.922665e-09    3.525447e-11    9.642560e-09    1.704264e-09   -2.840000e+00    8.403830e-01    1.465675e+00
    8.826587e-01    4.029696e+01    1.873679e+01    2.652666e+08    9.922600e-09    3.424894e-11    9.637240e-09    1.703881e-09   -2.830000e+00    8.403830e-01    1.457732e+00
    8.882359e-01    4.191077e+01    1.857162e+01    2.645909e+08    9.922550e-09    3.327572e-11    9.631900e-09    1.703499e-09   -2.820000e+00    8.403830e-01    1.449797e+00
    8.938342e-01    4.355202e+01    1.840687e+01    2.638979e+08    9.922505e-09    3.233366e-11    9.626530e-09    1.703118e-09   -2.810000e+00    8.403830e-01    1.441872e+00
    8.994558e-01    4.521945e+01    1.824257e+01    2.631878e+08    9.922475e-09    3.142164e-11    9.621140e-09    1.702739e-09   -2.800000e+00    8.403830e-01    1.433955e+00
    9.051033e-01    4.691190e+01    1.807871e+01    2.624622e+08    9.922450e-09    3.053860e-11    9.615720e-09    1.702361e-09   -2.790000e+00    8.403830e-01    1.426047e+00
    9.107791e-01    4.862823e+01    1.791531e+01    2.617213e+08    9.922440e-09    2.968352e-11    9.610280e-09    1.701985e-09   -2.780000e+00    8.403830e-01    1.418147e+00
    9.164861e-01    5.036742e+01    1.775238e+01    2.609663e+08    9.922430e-09    2.885540e-11    9.604820e-09    1.701609e-09   -2.770000e+00    8.403830e-01    1.410256e+00
    9.222262e-01    5.212848e+01    1.758992e+01    2.601975e+08    9.922435e-09    2.805329e-11    9.599335e-09    1.701235e-09   -2.760000e+00    8.403830e-01    1.402374e+00
    9.280018e-01    5.391053e+01    1.742794e+01    2.594157e+08    9.922445e-09    2.727628e-11    9.593825e-09    1.700862e-09   -2.750000e+00    8.403830e-01    1.394500e+00
    9.338150e-01    5.571275e+01    1.726646e+01    2.586217e+08    9.922455e-09    2.652349e-11    9.588295e-09    1.700490e-09   -2.740000e+00    8.403830e-01    1.386635e+00
    9.396681e-01    5.753441e+01    1.710547e+01    2.578157e+08    9.922480e-09    2.579407e-11    9.582740e-09    1.700119e-09   -2.730000e+00    8.403830e-01    1.378778e+00
    9.455630e-01    5.937484e+01    1.694499e+01    2.569985e+08    9.922505e-09    2.508721e-11    9.577165e-09    1.699749e-09   -2.720000e+00    8.403830e-01    1.370930e+00
    9.515017e-01    6.123344e+01    1.678502e+01    2.561704e+08    9.922535e-09    2.440214e-11    9.571570e-09    1.699380e-09   -2.710000e+00    8.403830e-01    1.363091e+00
    9.574863e-01    6.310971e+01    1.662557e+01    2.553320e+08    9.922565e-09    2.373808e-11    9.565950e-09    1.699012e-09   -2.700000e+00    8.403830e-01    1.355259e+00
    9.635187e-01    6.500323e+01    1.646664e+01    2.544835e+08    9.922605e-09    2.309432e-11    9.560310e-09    1.698644e-09   -2.690000e+00    8.403830e-01    1.347437e+00
    9.696004e-01    6.691361e+01    1.630826e+01    2.536255e+08    9.922645e-09    2.247016e-11    9.554650e-09    1.698277e-09   -2.680000e+00    8.403830e-01    1.339622e+00
    9.757337e-01    6.884055e+01    1.615040e+01    2.527582e+08    9.922690e-09    2.186493e-11    9.548965e-09    1.697910e-09   -2.670000e+00    8.403830e-01    1.331817e+00
    9.819203e-01    7.078379e+01    1.599309e+01    2.518821e+08    9.922735e-09    2.127798e-11    9.543260e-09    1.697545e-09   -2.660000e+00    8.403830e-01    1.324019e+00
    9.881617e-01    7.274315e+01    1.583632e+01    2.509973e+08    9.922780e-09    2.070869e-11    9.537535e-09    1.697180e-09   -2.650000e+00    8.403830e-01    1.316230e+00
    9.944595e-01    7.471848e+01    1.568011e+01    2.501042e+08    9.922825e-09    2.015646e-11    9.531790e-09    1.696816e-09   -2.640000e+00    8.403830e-01    1.308449e+00
    1.000815e+00    7.670972e+01    1.552446e+01    2.492029e+08    9.922875e-09    1.962072e-11    9.526020e-09    1.696451e-09   -2.630000e+00    8.403830e-01    1.300677e+00
    1.007232e+00    7.871684e+01    1.536937e+01    2.482940e+08    9.922920e-09    1.910090e-11    9.520235e-09    1.696088e-09   -2.620000e+00    8.403830e-01    1.292913e+00
    1.013710e+00    8.073982e+01    1.521485e+01    2.473773e+08    9.922970e-09    1.859647e-11    9.514425e-09    1.695725e-09   -2.610000e+00    8.403830e-01    1.285157e+00
    1.020251e+00    8.277875e+01    1.506091e+01    2.464533e+08    9.923015e-09    1.810693e-11    9.508595e-09    1.695361e-09   -2.600000e+00    8.403830e-01    1.277410e+00
    1.026858e+00    8.483373e+01    1.490754e+01    2.455221e+08    9.923060e-09    1.763176e-11    9.502740e-09    1.694998e-09   -2.590000e+00    8.403830e-01    1.269670e+00
    1.033531e+00    8.690482e+01    1.475474e+01    2.445837e+08    9.923105e-09    1.717050e-11    9.496870e-09    1.694636e-09   -2.580000e+00    8.403830e-01    1.261939e+00
    1.040272e+00    8.899227e+01    1.460254e+01    2.436386e+08    9.923145e-09    1.672269e-11    9.490975e-09    1.694272e-09   -2.570000e+00    8.403830e-01    1.254217e+00
    1.047083e+00    9.109620e+01    1.445094e+01    2.426867e+08    9.923185e-09    1.628788e-11    9.485060e-09    1.693910e-09   -2.560000e+00    8.403830e-01    1.246502e+00
    1.053965e+00    9.321687e+01    1.429992e+01    2.417283e+08    9.923220e-09    1.586563e-11    9.479120e-09    1.693547e-09   -2.550000e+00    8.403830e-01    1.238796e+00
    1.060921e+00    9.535455e+01    1.414950e+01    2.407633e+08    9.923255e-09    1.545556e-11    9.473165e-09    1.693185e-09   -2.540000e+00    8.403830e-01    1.231097e+00
    1.067952e+00    9.750950e+01    1.399969e+01    2.397921e+08    9.923285e-09    1.505724e-11    9.467185e-09    1.692822e-09   -2.530000e+00    8.403830e-01    1.223407e+00
    1.075060e+00    9.968201e+01    1.385049e+01    2.388148e+08    9.923310e-09    1.467031e-11    9.461185e-09    1.692458e-09   -2.520000e+00    8.403830e-01    1.215725e+00
    1.082245e+00    1.018724e+02    1.370189e+01    2.378312e+08    9.923330e-09    1.429439e-11    9.455165e-09    1.692095e-09   -2.510000e+00    8.403830e-01    1.208052e+00
    1.089511e+00    1.040810e+02    1.355391e+01    2.368416e+08    9.923350e-09    1.392912e-11    9.449120e-09    1.691731e-09   -2.500000e+00    8.403830e-01    1.200386e+00
    1.096858e+00    1.063082e+02    1.340655e+01    2.358462e+08    9.923360e-09    1.357419e-11    9.443055e-09    1.691367e-09   -2.490000e+00    8.403830e-01    1.192728e+00
    1.104289e+00    1.085544e+02    1.325981e+01    2.348450e+08    9.923365e-09    1.322923e-11    9.436970e-09    1.691002e-09   -2.480000e+00    8.403830e-01    1.185078e+00
    1.111806e+00    1.108200e+02    1.311370e+01    2.338380e+08    9.923365e-09    1.289393e-11    9.430860e-09    1.690637e-09   -2.470000e+00    8.403830e-01    1.177437e+00
    1.119408e+00    1.131053e+02    1.296822e+01    2.328253e+08    9.923360e-09    1.256800e-11    9.424730e-09    1.690271e-09   -2.460000e+00    8.403830e-01    1.169803e+00
    1.127100e+00    1.154108e+02    1.282336e+01    2.318069e+08    9.923350e-09    1.225112e-11    9.418580e-09    1.689905e-09   -2.450000e+00    8.403830e-01    1.162178e+00
    1.134883e+00    1.177370e+02    1.267915e+01    2.307831e+08    9.923330e-09    1.194303e-11    9.412405e-09    1.689538e-09   -2.440000e+00    8.403830e-01    1.154560e+00
    1.142759e+00    1.200844e+02    1.253558e+01    2.297539e+08    9.923300e-09    1.164344e-11    9.406205e-09    1.689170e-09   -2.430000e+00    8.403830e-01    1.146950e+00
    1.150728e+00    1.224533e+02    1.239265e+01    2.287191e+08    9.923270e-09    1.135208e-11    9.399985e-09    1.688802e-09   -2.420000e+00    8.403830e-01    1.139348e+00
    1.158795e+00    1.248442e+02    1.225037e+01    2.276790e+08    9.923225e-09    1.106869e-11    9.393740e-09    1.688432e-09   -2.410000e+00    8.403830e-01    1.131755e+00
    1.166960e+00    1.272577e+02    1.210874e+01    2.266335e+08    9.923175e-09    1.079305e-11    9.387475e-09    1.688062e-09   -2.400000e+00    8.403830e-01    1.124169e+00
    1.175225e+00    1.296943e+02    1.196776e+01    2.255828e+08    9.923115e-09    1.052489e-11    9.381185e-09    1.687690e-09   -2.390000e+00    8.403830e-01    1.116591e+00
    1.183593e+00    1.321546e+02    1.182744e+01    2.245268e+08    9.923050e-09    1.026399e-11    9.374870e-09    1.687318e-09   -2.380000e+00    8.403830e-01    1.109020e+00
    1.192066e+00    1.346390e+02    1.168779e+01    2.234657e+08    9.922970e-09    1.001012e-11    9.368535e-09    1.686944e-09   -2.370000e+00    8.403830e-01    1.101458e+00
    1.200646e+00    1.371480e+02    1.154879e+01    2.223994e+08    9.922885e-09    9.763075e-12    9.362175e-09    1.686570e-09   -2.360000e+00    8.403830e-01    1.093903e+00
    1.209335e+00    1.396823e+02    1.141047e+01    2.213279e+08    9.922790e-09    9.522640e-12    9.355790e-09    1.686194e-09   -2.350000e+00    8.403830e-01    1.086356e+00
    1.218135e+00    1.422426e+02    1.127281e+01    2.202514e+08    9.922680e-09    9.288620e-12    9.349380e-09    1.685817e-09   -2.340000e+00    8.403830e-01    1.078817e+00
    1.227049e+00    1.448291e+02    1.113583e+01    2.191698e+08    9.922565e-09    9.060820e-12    9.342945e-09    1.685439e-09   -2.330000e+00    8.403830e-01    1.071286e+00
    1.236079e+00    1.474427e+02    1.099953e+01    2.180832e+08    9.922435e-09    8.839045e-12    9.336485e-09    1.685059e-09   -2.320000e+00    8.403830e-01    1.063763e+00
    1.245228e+00    1.500840e+02    1.086391e+01    2.169915e+08    9.922295e-09    8.623120e-12    9.330000e-09    1.684677e-09   -2.310000e+00    8.403830e-01    1.056247e+00
    1.254498e+00    1.527534e+02    1.072897e+01    2.158949e+08    9.922145e-09    8.412870e-12    9.323485e-09    1.684294e-09   -2.300000e+00    8.403830e-01    1.048739e+00
    1.263891e+00    1.554518e+02    1.059472e+01    2.147933e+08    9.921980e-09    8.208125e-12    9.316950e-09    1.683910e-09   -2.290000e+00    8.403830e-01    1.041238e+00
    1.273411e+00    1.581798e+02    1.046115e+01    2.136867e+08    9.921805e-09    8.008720e-12    9.310385e-09    1.683524e-09   -2.280000e+00    8.403830e-01    1.033746e+00
    1.283059e+00    1.609380e+02    1.032829e+01    2.125753e+08    9.921615e-09    7.814500e-12    9.303795e-09    1.683136e-09   -2.270000e+00    8.403830e-01    1.026261e+00
    1.292839e+00    1.637271e+02    1.019612e+01    2.114589e+08    9.921415e-09    7.625310e-12    9.297180e-09    1.682746e-09   -2.260000e+00    8.403830e-01    1.018783e+00
    1.302754e+00    1.665478e+02    1.006466e+01    2.103377e+08    9.921200e-09    7.441000e-12    9.290535e-09    1.682355e-09   -2.250000e+00    8.403830e-01    1.011313e+00
    1.312805e+00    1.694008e+02    9.933890e+00    2.092116e+08    9.920970e-09    7.261430e-12    9.283860e-09    1.681961e-09   -2.240000e+00    8.403830e-01    1.003851e+00
    1.322998e+00    1.722869e+02    9.803830e+00    2.080805e+08    9.920730e-09    7.086460e-12    9.277160e-09    1.681566e-09   -2.230000e+00    8.403830e-01    9.963965e-01
    1.333334e+00    1.752068e+02    9.674480e+00    2.069448e+08    9.920470e-09    6.915960e-12    9.270435e-09    1.681168e-09   -2.220000e+00    8.403830e-01    9.889494e-01
