# GF180MCU-D pfet_03v3 gm/ID Processed Lookup Table
# Corner: typical
# Temperature: -40C
# W = 2.0 um
# L = 2 um (2000 nm)
# Columns: gm/id [1/V]  gm/gds [V/V]  id/W [A/m]  ft [Hz]  Cgg/W [F/m]  Cgd/W [F/m]  Cgs/W [F/m]  Cdb/W [F/m]  vgs [V]  vth [V]  vdsat [V]
# vdsat = BSIM saturation voltage (|VDS|_sat, positive); use for headroom / saturation / cascode-bias calculations
#           gm/id          gm/gds            id/W              ft           Cgg/W           Cgd/W           Cgs/W           Cdb/W             vgs             vth           vdsat
    5.987027e-01    4.173371e+00    4.008882e+01    5.725892e+08    6.671315e-09    1.073069e-10    6.553585e-09    1.140215e-09   -3.300000e+00    8.428489e-01    1.856164e+00
    6.040489e-01    4.308158e+00    3.984880e+01    5.743679e+08    6.669870e-09    1.037597e-10    6.551780e-09    1.139921e-09   -3.290000e+00    8.428489e-01    1.847806e+00
    6.094575e-01    4.450232e+00    3.960741e+01    5.761199e+08    6.668485e-09    1.003348e-10    6.549910e-09    1.139627e-09   -3.280000e+00    8.428489e-01    1.839456e+00
    6.149119e-01    4.600089e+00    3.936568e+01    5.778426e+08    6.667165e-09    9.702825e-11    6.547980e-09    1.139333e-09   -3.270000e+00    8.428489e-01    1.831115e+00
    6.204159e-01    4.758263e+00    3.912329e+01    5.795349e+08    6.665900e-09    9.383625e-11    6.545980e-09    1.139037e-09   -3.260000e+00    8.428489e-01    1.822784e+00
    6.259680e-01    4.925322e+00    3.888023e+01    5.811936e+08    6.664695e-09    9.075505e-11    6.543925e-09    1.138741e-09   -3.250000e+00    8.428489e-01    1.814462e+00
    6.315663e-01    5.101876e+00    3.863654e+01    5.828171e+08    6.663540e-09    8.778100e-11    6.541810e-09    1.138445e-09   -3.240000e+00    8.428489e-01    1.806149e+00
    6.372090e-01    5.288569e+00    3.839221e+01    5.844017e+08    6.662445e-09    8.491050e-11    6.539640e-09    1.138148e-09   -3.230000e+00    8.428489e-01    1.797845e+00
    6.428939e-01    5.486089e+00    3.814726e+01    5.859460e+08    6.661395e-09    8.214010e-11    6.537420e-09    1.137852e-09   -3.220000e+00    8.428489e-01    1.789550e+00
    6.486185e-01    5.695162e+00    3.790172e+01    5.874461e+08    6.660400e-09    7.946630e-11    6.535140e-09    1.137555e-09   -3.210000e+00    8.428489e-01    1.781264e+00
    6.543800e-01    5.916554e+00    3.765559e+01    5.888997e+08    6.659450e-09    7.688590e-11    6.532815e-09    1.137258e-09   -3.200000e+00    8.428489e-01    1.772987e+00
    6.601757e-01    6.151068e+00    3.740891e+01    5.903035e+08    6.658545e-09    7.439560e-11    6.530440e-09    1.136962e-09   -3.190000e+00    8.428489e-01    1.764719e+00
    6.660026e-01    6.399550e+00    3.716167e+01    5.916543e+08    6.657685e-09    7.199235e-11    6.528015e-09    1.136667e-09   -3.180000e+00    8.428489e-01    1.756460e+00
    6.718572e-01    6.662876e+00    3.691392e+01    5.929487e+08    6.656870e-09    6.967305e-11    6.525550e-09    1.136372e-09   -3.170000e+00    8.428489e-01    1.748210e+00
    6.777361e-01    6.941958e+00    3.666566e+01    5.941837e+08    6.656095e-09    6.743475e-11    6.523035e-09    1.136078e-09   -3.160000e+00    8.428489e-01    1.739969e+00
    6.836356e-01    7.237731e+00    3.641693e+01    5.953558e+08    6.655360e-09    6.527460e-11    6.520480e-09    1.135784e-09   -3.150000e+00    8.428489e-01    1.731737e+00
    6.895520e-01    7.551156e+00    3.616775e+01    5.964616e+08    6.654665e-09    6.318980e-11    6.517885e-09    1.135492e-09   -3.140000e+00    8.428489e-01    1.723513e+00
    6.954814e-01    7.883205e+00    3.591815e+01    5.974980e+08    6.654005e-09    6.117775e-11    6.515245e-09    1.135200e-09   -3.130000e+00    8.428489e-01    1.715299e+00
    7.014202e-01    8.234864e+00    3.566816e+01    5.984622e+08    6.653380e-09    5.923580e-11    6.512570e-09    1.134909e-09   -3.120000e+00    8.428489e-01    1.707093e+00
    7.073643e-01    8.607104e+00    3.541779e+01    5.993506e+08    6.652790e-09    5.736140e-11    6.509860e-09    1.134619e-09   -3.110000e+00    8.428489e-01    1.698896e+00
    7.133097e-01    9.000893e+00    3.516710e+01    6.001607e+08    6.652230e-09    5.555220e-11    6.507115e-09    1.134330e-09   -3.100000e+00    8.428489e-01    1.690708e+00
    7.192532e-01    9.417170e+00    3.491611e+01    6.008897e+08    6.651705e-09    5.380575e-11    6.504330e-09    1.134043e-09   -3.090000e+00    8.428489e-01    1.682529e+00
    7.251910e-01    9.856837e+00    3.466484e+01    6.015352e+08    6.651210e-09    5.211985e-11    6.501515e-09    1.133756e-09   -3.080000e+00    8.428489e-01    1.674358e+00
    7.311198e-01    1.032074e+01    3.441334e+01    6.020957e+08    6.650740e-09    5.049225e-11    6.498665e-09    1.133472e-09   -3.070000e+00    8.428489e-01    1.666197e+00
    7.370365e-01    1.080967e+01    3.416165e+01    6.025689e+08    6.650300e-09    4.892092e-11    6.495785e-09    1.133188e-09   -3.060000e+00    8.428489e-01    1.658043e+00
    7.429385e-01    1.132433e+01    3.390978e+01    6.029532e+08    6.649890e-09    4.740372e-11    6.492875e-09    1.132905e-09   -3.050000e+00    8.428489e-01    1.649899e+00
    7.488233e-01    1.186534e+01    3.365780e+01    6.032485e+08    6.649500e-09    4.593871e-11    6.489930e-09    1.132624e-09   -3.040000e+00    8.428489e-01    1.641763e+00
    7.546891e-01    1.243321e+01    3.340573e+01    6.034532e+08    6.649140e-09    4.452401e-11    6.486960e-09    1.132343e-09   -3.030000e+00    8.428489e-01    1.633636e+00
    7.605343e-01    1.302833e+01    3.315360e+01    6.035681e+08    6.648800e-09    4.315774e-11    6.483965e-09    1.132065e-09   -3.020000e+00    8.428489e-01    1.625518e+00
    7.663578e-01    1.365101e+01    3.290145e+01    6.035927e+08    6.648485e-09    4.183817e-11    6.480940e-09    1.131788e-09   -3.010000e+00    8.428489e-01    1.617408e+00
    7.721591e-01    1.430137e+01    3.264932e+01    6.035283e+08    6.648190e-09    4.056357e-11    6.477890e-09    1.131512e-09   -3.000000e+00    8.428489e-01    1.609306e+00
    7.779378e-01    1.497945e+01    3.239725e+01    6.033755e+08    6.647915e-09    3.933231e-11    6.474815e-09    1.131237e-09   -2.990000e+00    8.428489e-01    1.601213e+00
    7.836941e-01    1.568512e+01    3.214527e+01    6.031357e+08    6.647660e-09    3.814279e-11    6.471710e-09    1.130963e-09   -2.980000e+00    8.428489e-01    1.593129e+00
    7.894288e-01    1.641815e+01    3.189342e+01    6.028104e+08    6.647425e-09    3.699349e-11    6.468585e-09    1.130692e-09   -2.970000e+00    8.428489e-01    1.585053e+00
    7.951430e-01    1.717819e+01    3.164173e+01    6.024022e+08    6.647205e-09    3.588295e-11    6.465440e-09    1.130421e-09   -2.960000e+00    8.428489e-01    1.576986e+00
    8.008379e-01    1.796473e+01    3.139024e+01    6.019124e+08    6.647005e-09    3.480975e-11    6.462265e-09    1.130152e-09   -2.950000e+00    8.428489e-01    1.568927e+00
    8.065153e-01    1.877717e+01    3.113897e+01    6.013441e+08    6.646820e-09    3.377253e-11    6.459075e-09    1.129884e-09   -2.940000e+00    8.428489e-01    1.560876e+00
    8.121772e-01    1.961485e+01    3.088796e+01    6.006997e+08    6.646650e-09    3.276996e-11    6.455855e-09    1.129618e-09   -2.930000e+00    8.428489e-01    1.552834e+00
    8.178257e-01    2.047697e+01    3.063725e+01    5.999812e+08    6.646500e-09    3.180081e-11    6.452620e-09    1.129352e-09   -2.920000e+00    8.428489e-01    1.544801e+00
    8.234635e-01    2.136270e+01    3.038686e+01    5.991925e+08    6.646360e-09    3.086384e-11    6.449365e-09    1.129088e-09   -2.910000e+00    8.428489e-01    1.536775e+00
    8.290929e-01    2.227115e+01    3.013681e+01    5.983357e+08    6.646235e-09    2.995789e-11    6.446085e-09    1.128826e-09   -2.900000e+00    8.428489e-01    1.528758e+00
    8.347169e-01    2.320137e+01    2.988714e+01    5.974141e+08    6.646120e-09    2.908184e-11    6.442790e-09    1.128564e-09   -2.890000e+00    8.428489e-01    1.520750e+00
    8.403381e-01    2.415241e+01    2.963788e+01    5.964302e+08    6.646020e-09    2.823459e-11    6.439470e-09    1.128304e-09   -2.880000e+00    8.428489e-01    1.512749e+00
    8.459596e-01    2.512331e+01    2.938903e+01    5.953869e+08    6.645930e-09    2.741512e-11    6.436135e-09    1.128045e-09   -2.870000e+00    8.428489e-01    1.504757e+00
    8.515841e-01    2.611309e+01    2.914065e+01    5.942871e+08    6.645850e-09    2.662242e-11    6.432785e-09    1.127787e-09   -2.860000e+00    8.428489e-01    1.496774e+00
    8.572147e-01    2.712078e+01    2.889273e+01    5.931333e+08    6.645780e-09    2.585551e-11    6.429410e-09    1.127530e-09   -2.850000e+00    8.428489e-01    1.488798e+00
    8.628543e-01    2.814551e+01    2.864531e+01    5.919277e+08    6.645725e-09    2.511349e-11    6.426020e-09    1.127274e-09   -2.840000e+00    8.428489e-01    1.480831e+00
    8.685056e-01    2.918635e+01    2.839840e+01    5.906736e+08    6.645675e-09    2.439544e-11    6.422615e-09    1.127020e-09   -2.830000e+00    8.428489e-01    1.472872e+00
    8.741716e-01    3.024245e+01    2.815203e+01    5.893728e+08    6.645635e-09    2.370053e-11    6.419190e-09    1.126766e-09   -2.820000e+00    8.428489e-01    1.464921e+00
    8.798551e-01    3.131305e+01    2.790621e+01    5.880279e+08    6.645600e-09    2.302790e-11    6.415750e-09    1.126513e-09   -2.810000e+00    8.428489e-01    1.456978e+00
    8.855586e-01    3.239737e+01    2.766097e+01    5.866407e+08    6.645575e-09    2.237679e-11    6.412290e-09    1.126262e-09   -2.800000e+00    8.428489e-01    1.449043e+00
    8.912850e-01    3.349471e+01    2.741631e+01    5.852132e+08    6.645560e-09    2.174642e-11    6.408820e-09    1.126011e-09   -2.790000e+00    8.428489e-01    1.441116e+00
    8.970369e-01    3.460448e+01    2.717226e+01    5.837477e+08    6.645550e-09    2.113606e-11    6.405330e-09    1.125761e-09   -2.780000e+00    8.428489e-01    1.433198e+00
    9.028164e-01    3.572609e+01    2.692883e+01    5.822458e+08    6.645545e-09    2.054498e-11    6.401825e-09    1.125512e-09   -2.770000e+00    8.428489e-01    1.425287e+00
    9.086267e-01    3.685902e+01    2.668603e+01    5.807095e+08    6.645545e-09    1.997254e-11    6.398300e-09    1.125265e-09   -2.760000e+00    8.428489e-01    1.417385e+00
    9.144694e-01    3.800283e+01    2.644388e+01    5.791399e+08    6.645550e-09    1.941805e-11    6.394765e-09    1.125017e-09   -2.750000e+00    8.428489e-01    1.409491e+00
    9.203473e-01    3.915714e+01    2.620239e+01    5.775383e+08    6.645565e-09    1.888089e-11    6.391215e-09    1.124771e-09   -2.740000e+00    8.428489e-01    1.401604e+00
    9.262624e-01    4.032159e+01    2.596158e+01    5.759069e+08    6.645580e-09    1.836047e-11    6.387645e-09    1.124526e-09   -2.730000e+00    8.428489e-01    1.393726e+00
    9.322171e-01    4.149590e+01    2.572145e+01    5.742465e+08    6.645600e-09    1.785619e-11    6.384065e-09    1.124280e-09   -2.720000e+00    8.428489e-01    1.385856e+00
    9.382133e-01    4.267985e+01    2.548202e+01    5.725582e+08    6.645625e-09    1.736749e-11    6.380470e-09    1.124037e-09   -2.710000e+00    8.428489e-01    1.377993e+00
    9.442529e-01    4.387327e+01    2.524330e+01    5.708436e+08    6.645650e-09    1.689383e-11    6.376855e-09    1.123793e-09   -2.700000e+00    8.428489e-01    1.370138e+00
    9.503383e-01    4.507594e+01    2.500530e+01    5.691028e+08    6.645685e-09    1.643471e-11    6.373230e-09    1.123549e-09   -2.690000e+00    8.428489e-01    1.362292e+00
    9.564713e-01    4.628780e+01    2.476803e+01    5.673379e+08    6.645715e-09    1.598960e-11    6.369590e-09    1.123307e-09   -2.680000e+00    8.428489e-01    1.354453e+00
    9.626537e-01    4.750884e+01    2.453151e+01    5.655492e+08    6.645750e-09    1.555803e-11    6.365935e-09    1.123065e-09   -2.670000e+00    8.428489e-01    1.346622e+00
    9.688875e-01    4.873898e+01    2.429573e+01    5.637374e+08    6.645790e-09    1.513955e-11    6.362265e-09    1.122824e-09   -2.660000e+00    8.428489e-01    1.338799e+00
    9.751747e-01    4.997824e+01    2.406071e+01    5.619035e+08    6.645830e-09    1.473369e-11    6.358585e-09    1.122583e-09   -2.650000e+00    8.428489e-01    1.330984e+00
    9.815166e-01    5.122667e+01    2.382647e+01    5.600484e+08    6.645870e-09    1.434004e-11    6.354885e-09    1.122343e-09   -2.640000e+00    8.428489e-01    1.323176e+00
    9.879153e-01    5.248432e+01    2.359299e+01    5.581725e+08    6.645910e-09    1.395818e-11    6.351175e-09    1.122103e-09   -2.630000e+00    8.428489e-01    1.315376e+00
    9.943727e-01    5.375130e+01    2.336031e+01    5.562763e+08    6.645955e-09    1.358771e-11    6.347450e-09    1.121863e-09   -2.620000e+00    8.428489e-01    1.307584e+00
    1.000890e+00    5.502771e+01    2.312842e+01    5.543608e+08    6.645995e-09    1.322825e-11    6.343710e-09    1.121623e-09   -2.610000e+00    8.428489e-01    1.299800e+00
    1.007470e+00    5.631371e+01    2.289733e+01    5.524261e+08    6.646040e-09    1.287943e-11    6.339960e-09    1.121384e-09   -2.600000e+00    8.428489e-01    1.292023e+00
    1.014114e+00    5.760945e+01    2.266706e+01    5.504733e+08    6.646080e-09    1.254089e-11    6.336190e-09    1.121145e-09   -2.590000e+00    8.428489e-01    1.284254e+00
    1.020822e+00    5.891508e+01    2.243760e+01    5.485019e+08    6.646125e-09    1.221229e-11    6.332410e-09    1.120906e-09   -2.580000e+00    8.428489e-01    1.276493e+00
    1.027599e+00    6.023085e+01    2.220896e+01    5.465134e+08    6.646165e-09    1.189331e-11    6.328615e-09    1.120667e-09   -2.570000e+00    8.428489e-01    1.268740e+00
    1.034444e+00    6.155691e+01    2.198116e+01    5.445074e+08    6.646205e-09    1.158361e-11    6.324810e-09    1.120429e-09   -2.560000e+00    8.428489e-01    1.260994e+00
    1.041359e+00    6.289351e+01    2.175419e+01    5.424846e+08    6.646245e-09    1.128291e-11    6.320985e-09    1.120190e-09   -2.550000e+00    8.428489e-01    1.253255e+00
    1.048347e+00    6.424087e+01    2.152808e+01    5.404456e+08    6.646280e-09    1.099090e-11    6.317150e-09    1.119951e-09   -2.540000e+00    8.428489e-01    1.245524e+00
    1.055409e+00    6.559927e+01    2.130282e+01    5.383903e+08    6.646315e-09    1.070729e-11    6.313300e-09    1.119713e-09   -2.530000e+00    8.428489e-01    1.237801e+00
    1.062547e+00    6.696892e+01    2.107842e+01    5.363189e+08    6.646350e-09    1.043182e-11    6.309435e-09    1.119475e-09   -2.520000e+00    8.428489e-01    1.230085e+00
    1.069762e+00    6.835011e+01    2.085489e+01    5.342322e+08    6.646380e-09    1.016421e-11    6.305555e-09    1.119236e-09   -2.510000e+00    8.428489e-01    1.222377e+00
    1.077057e+00    6.974311e+01    2.063223e+01    5.321298e+08    6.646410e-09    9.904220e-12    6.301665e-09    1.118998e-09   -2.500000e+00    8.428489e-01    1.214677e+00
    1.084432e+00    7.114821e+01    2.041044e+01    5.300127e+08    6.646435e-09    9.651600e-12    6.297755e-09    1.118758e-09   -2.490000e+00    8.428489e-01    1.206983e+00
    1.091890e+00    7.256568e+01    2.018956e+01    5.278804e+08    6.646460e-09    9.406115e-12    6.293835e-09    1.118520e-09   -2.480000e+00    8.428489e-01    1.199298e+00
    1.099433e+00    7.399587e+01    1.996955e+01    5.257336e+08    6.646480e-09    9.167530e-12    6.289900e-09    1.118280e-09   -2.470000e+00    8.428489e-01    1.191619e+00
    1.107063e+00    7.543904e+01    1.975045e+01    5.235725e+08    6.646495e-09    8.935630e-12    6.285950e-09    1.118041e-09   -2.460000e+00    8.428489e-01    1.183948e+00
    1.114781e+00    7.689553e+01    1.953225e+01    5.213972e+08    6.646505e-09    8.710200e-12    6.281985e-09    1.117801e-09   -2.450000e+00    8.428489e-01    1.176285e+00
    1.122589e+00    7.836564e+01    1.931497e+01    5.192074e+08    6.646515e-09    8.491040e-12    6.278010e-09    1.117561e-09   -2.440000e+00    8.428489e-01    1.168629e+00
    1.130489e+00    7.984973e+01    1.909861e+01    5.170039e+08    6.646520e-09    8.277945e-12    6.274015e-09    1.117320e-09   -2.430000e+00    8.428489e-01    1.160980e+00
    1.138484e+00    8.134811e+01    1.888315e+01    5.147866e+08    6.646520e-09    8.070730e-12    6.270005e-09    1.117079e-09   -2.420000e+00    8.428489e-01    1.153338e+00
    1.146574e+00    8.286114e+01    1.866864e+01    5.125557e+08    6.646515e-09    7.869210e-12    6.265985e-09    1.116838e-09   -2.410000e+00    8.428489e-01    1.145704e+00
    1.154763e+00    8.438916e+01    1.845506e+01    5.103112e+08    6.646505e-09    7.673205e-12    6.261945e-09    1.116596e-09   -2.400000e+00    8.428489e-01    1.138077e+00
    1.163052e+00    8.593254e+01    1.824242e+01    5.080534e+08    6.646490e-09    7.482545e-12    6.257895e-09    1.116353e-09   -2.390000e+00    8.428489e-01    1.130458e+00
    1.171443e+00    8.749161e+01    1.803073e+01    5.057827e+08    6.646465e-09    7.297065e-12    6.253825e-09    1.116110e-09   -2.380000e+00    8.428489e-01    1.122845e+00
    1.179940e+00    8.906675e+01    1.781998e+01    5.034983e+08    6.646440e-09    7.116605e-12    6.249740e-09    1.115866e-09   -2.370000e+00    8.428489e-01    1.115240e+00
    1.188542e+00    9.065837e+01    1.761020e+01    5.012008e+08    6.646410e-09    6.941010e-12    6.245640e-09    1.115622e-09   -2.360000e+00    8.428489e-01    1.107642e+00
    1.197254e+00    9.226683e+01    1.740138e+01    4.988908e+08    6.646370e-09    6.770130e-12    6.241525e-09    1.115376e-09   -2.350000e+00    8.428489e-01    1.100052e+00
    1.206077e+00    9.389251e+01    1.719352e+01    4.965676e+08    6.646325e-09    6.603825e-12    6.237395e-09    1.115131e-09   -2.340000e+00    8.428489e-01    1.092468e+00
    1.215014e+00    9.553582e+01    1.698664e+01    4.942316e+08    6.646275e-09    6.441955e-12    6.233250e-09    1.114884e-09   -2.330000e+00    8.428489e-01    1.084892e+00
    1.224066e+00    9.719716e+01    1.678074e+01    4.918826e+08    6.646220e-09    6.284385e-12    6.229085e-09    1.114636e-09   -2.320000e+00    8.428489e-01    1.077322e+00
    1.233237e+00    9.887693e+01    1.657583e+01    4.895213e+08    6.646155e-09    6.130980e-12    6.224910e-09    1.114388e-09   -2.310000e+00    8.428489e-01    1.069760e+00
    1.242530e+00    1.005756e+02    1.637190e+01    4.871476e+08    6.646080e-09    5.981625e-12    6.220710e-09    1.114139e-09   -2.300000e+00    8.428489e-01    1.062205e+00
    1.251945e+00    1.022935e+02    1.616898e+01    4.847608e+08    6.646005e-09    5.836190e-12    6.216500e-09    1.113888e-09   -2.290000e+00    8.428489e-01    1.054657e+00
    1.261487e+00    1.040312e+02    1.596705e+01    4.823620e+08    6.645915e-09    5.694565e-12    6.212270e-09    1.113637e-09   -2.280000e+00    8.428489e-01    1.047116e+00
    1.271159e+00    1.057891e+02    1.576614e+01    4.799508e+08    6.645820e-09    5.556635e-12    6.208025e-09    1.113385e-09   -2.270000e+00    8.428489e-01    1.039582e+00
    1.280962e+00    1.075676e+02    1.556623e+01    4.775269e+08    6.645720e-09    5.422285e-12    6.203760e-09    1.113132e-09   -2.260000e+00    8.428489e-01    1.032055e+00
    1.290900e+00    1.093673e+02    1.536734e+01    4.750907e+08    6.645610e-09    5.291415e-12    6.199480e-09    1.112878e-09   -2.250000e+00    8.428489e-01    1.024535e+00
    1.300975e+00    1.111885e+02    1.516948e+01    4.726424e+08    6.645490e-09    5.163920e-12    6.195180e-09    1.112622e-09   -2.240000e+00    8.428489e-01    1.017022e+00
    1.311191e+00    1.130318e+02    1.497264e+01    4.701819e+08    6.645360e-09    5.039705e-12    6.190865e-09    1.112365e-09   -2.230000e+00    8.428489e-01    1.009516e+00
    1.321550e+00    1.148976e+02    1.477684e+01    4.677089e+08    6.645225e-09    4.918672e-12    6.186530e-09    1.112108e-09   -2.220000e+00    8.428489e-01    1.002017e+00
