# GF180MCU-D pfet_03v3 gm/ID Processed Lookup Table
# Corner: ss
# Temperature: -40C
# W = 2.0 um
# L = 4.5 um (4500 nm)
# Columns: gm/id [1/V]  gm/gds [V/V]  id/W [A/m]  ft [Hz]  Cgg/W [F/m]  Cgd/W [F/m]  Cgs/W [F/m]  Cdb/W [F/m]  vgs [V]  vth [V]  vdsat [V]
# vdsat = BSIM saturation voltage (|VDS|_sat, positive); use for headroom / saturation / cascode-bias calculations
#           gm/id          gm/gds            id/W              ft           Cgg/W           Cgd/W           Cgs/W           Cdb/W             vgs             vth           vdsat
    7.116933e-01    9.835827e+00    1.516868e+01    1.211583e+08    1.418102e-08    1.236125e-10    1.399915e-08    2.585624e-09   -3.300000e+00    9.605520e-01    1.702833e+00
    7.174826e-01    1.034458e+01    1.506072e+01    1.212865e+08    1.417963e-08    1.197181e-10    1.399263e-08    2.584971e-09   -3.290000e+00    9.605520e-01    1.694666e+00
    7.232681e-01    1.088817e+01    1.495256e+01    1.213977e+08    1.417831e-08    1.159587e-10    1.398605e-08    2.584321e-09   -3.280000e+00    9.605520e-01    1.686510e+00
    7.290388e-01    1.146878e+01    1.484437e+01    1.214918e+08    1.417705e-08    1.123294e-10    1.397939e-08    2.583673e-09   -3.270000e+00    9.605520e-01    1.678363e+00
    7.347929e-01    1.208859e+01    1.473612e+01    1.215680e+08    1.417585e-08    1.088256e-10    1.397266e-08    2.583029e-09   -3.260000e+00    9.605520e-01    1.670226e+00
    7.405283e-01    1.274984e+01    1.462782e+01    1.216261e+08    1.417472e-08    1.054426e-10    1.396586e-08    2.582387e-09   -3.250000e+00    9.605520e-01    1.662100e+00
    7.462410e-01    1.345474e+01    1.451948e+01    1.216659e+08    1.417365e-08    1.021760e-10    1.395900e-08    2.581749e-09   -3.240000e+00    9.605520e-01    1.653983e+00
    7.519292e-01    1.420550e+01    1.441113e+01    1.216872e+08    1.417262e-08    9.902165e-11    1.395207e-08    2.581113e-09   -3.230000e+00    9.605520e-01    1.645876e+00
    7.575902e-01    1.500427e+01    1.430277e+01    1.216898e+08    1.417165e-08    9.597550e-11    1.394508e-08    2.580481e-09   -3.220000e+00    9.605520e-01    1.637780e+00
    7.632224e-01    1.585316e+01    1.419442e+01    1.216737e+08    1.417073e-08    9.303355e-11    1.393803e-08    2.579852e-09   -3.210000e+00    9.605520e-01    1.629693e+00
    7.688253e-01    1.675417e+01    1.408610e+01    1.216390e+08    1.416986e-08    9.019205e-11    1.393092e-08    2.579226e-09   -3.200000e+00    9.605520e-01    1.621616e+00
    7.743970e-01    1.770918e+01    1.397783e+01    1.215859e+08    1.416904e-08    8.744725e-11    1.392376e-08    2.578603e-09   -3.190000e+00    9.605520e-01    1.613549e+00
    7.799381e-01    1.871997e+01    1.386962e+01    1.215146e+08    1.416826e-08    8.479565e-11    1.391654e-08    2.577984e-09   -3.180000e+00    9.605520e-01    1.605492e+00
    7.854487e-01    1.978809e+01    1.376149e+01    1.214254e+08    1.416752e-08    8.223390e-11    1.390927e-08    2.577368e-09   -3.170000e+00    9.605520e-01    1.597445e+00
    7.909286e-01    2.091497e+01    1.365345e+01    1.213186e+08    1.416682e-08    7.975870e-11    1.390195e-08    2.576755e-09   -3.160000e+00    9.605520e-01    1.589408e+00
    7.963798e-01    2.210185e+01    1.354552e+01    1.211947e+08    1.416617e-08    7.736685e-11    1.389457e-08    2.576145e-09   -3.150000e+00    9.605520e-01    1.581380e+00
    8.018036e-01    2.334970e+01    1.343771e+01    1.210542e+08    1.416555e-08    7.505540e-11    1.388715e-08    2.575538e-09   -3.140000e+00    9.605520e-01    1.573362e+00
    8.072015e-01    2.465931e+01    1.333003e+01    1.208976e+08    1.416496e-08    7.282130e-11    1.387968e-08    2.574934e-09   -3.130000e+00    9.605520e-01    1.565354e+00
    8.125756e-01    2.603120e+01    1.322250e+01    1.207256e+08    1.416441e-08    7.066185e-11    1.387216e-08    2.574334e-09   -3.120000e+00    9.605520e-01    1.557356e+00
    8.179281e-01    2.746572e+01    1.311515e+01    1.205386e+08    1.416389e-08    6.857425e-11    1.386460e-08    2.573736e-09   -3.110000e+00    9.605520e-01    1.549367e+00
    8.232625e-01    2.896293e+01    1.300797e+01    1.203373e+08    1.416340e-08    6.655595e-11    1.385700e-08    2.573142e-09   -3.100000e+00    9.605520e-01    1.541389e+00
    8.285800e-01    3.052266e+01    1.290098e+01    1.201223e+08    1.416294e-08    6.460440e-11    1.384935e-08    2.572550e-09   -3.090000e+00    9.605520e-01    1.533419e+00
    8.338846e-01    3.214455e+01    1.279418e+01    1.198942e+08    1.416251e-08    6.271720e-11    1.384166e-08    2.571961e-09   -3.080000e+00    9.605520e-01    1.525460e+00
    8.391792e-01    3.382804e+01    1.268760e+01    1.196538e+08    1.416211e-08    6.089200e-11    1.383392e-08    2.571376e-09   -3.070000e+00    9.605520e-01    1.517510e+00
    8.444664e-01    3.557232e+01    1.258124e+01    1.194015e+08    1.416173e-08    5.912660e-11    1.382615e-08    2.570793e-09   -3.060000e+00    9.605520e-01    1.509570e+00
    8.497493e-01    3.737645e+01    1.247512e+01    1.191380e+08    1.416137e-08    5.741880e-11    1.381834e-08    2.570214e-09   -3.050000e+00    9.605520e-01    1.501639e+00
    8.550314e-01    3.923933e+01    1.236923e+01    1.188639e+08    1.416103e-08    5.576655e-11    1.381049e-08    2.569636e-09   -3.040000e+00    9.605520e-01    1.493718e+00
    8.603154e-01    4.115968e+01    1.226360e+01    1.185797e+08    1.416072e-08    5.416790e-11    1.380260e-08    2.569062e-09   -3.030000e+00    9.605520e-01    1.485807e+00
    8.656041e-01    4.313614e+01    1.215822e+01    1.182859e+08    1.416043e-08    5.262085e-11    1.379468e-08    2.568490e-09   -3.020000e+00    9.605520e-01    1.477905e+00
    8.709010e-01    4.516726e+01    1.205312e+01    1.179832e+08    1.416016e-08    5.112355e-11    1.378672e-08    2.567921e-09   -3.010000e+00    9.605520e-01    1.470012e+00
    8.762090e-01    4.725148e+01    1.194828e+01    1.176720e+08    1.415990e-08    4.967433e-11    1.377872e-08    2.567354e-09   -3.000000e+00    9.605520e-01    1.462129e+00
    8.815301e-01    4.938720e+01    1.184373e+01    1.173526e+08    1.415967e-08    4.827139e-11    1.377069e-08    2.566788e-09   -2.990000e+00    9.605520e-01    1.454256e+00
    8.868680e-01    5.157280e+01    1.173947e+01    1.170258e+08    1.415944e-08    4.691311e-11    1.376262e-08    2.566227e-09   -2.980000e+00    9.605520e-01    1.446391e+00
    8.922251e-01    5.380665e+01    1.163551e+01    1.166918e+08    1.415923e-08    4.559790e-11    1.375452e-08    2.565667e-09   -2.970000e+00    9.605520e-01    1.438537e+00
    8.976031e-01    5.608704e+01    1.153185e+01    1.163508e+08    1.415904e-08    4.432426e-11    1.374638e-08    2.565108e-09   -2.960000e+00    9.605520e-01    1.430691e+00
    9.030060e-01    5.841241e+01    1.142849e+01    1.160036e+08    1.415886e-08    4.309070e-11    1.373821e-08    2.564553e-09   -2.950000e+00    9.605520e-01    1.422856e+00
    9.084349e-01    6.078107e+01    1.132545e+01    1.156502e+08    1.415869e-08    4.189583e-11    1.373002e-08    2.563999e-09   -2.940000e+00    9.605520e-01    1.415029e+00
    9.138930e-01    6.319155e+01    1.122272e+01    1.152910e+08    1.415853e-08    4.073830e-11    1.372178e-08    2.563447e-09   -2.930000e+00    9.605520e-01    1.407212e+00
    9.193818e-01    6.564229e+01    1.112032e+01    1.149264e+08    1.415838e-08    3.961678e-11    1.371352e-08    2.562897e-09   -2.920000e+00    9.605520e-01    1.399404e+00
    9.249041e-01    6.813186e+01    1.101825e+01    1.145566e+08    1.415824e-08    3.853003e-11    1.370522e-08    2.562349e-09   -2.910000e+00    9.605520e-01    1.391605e+00
    9.304617e-01    7.065890e+01    1.091651e+01    1.141818e+08    1.415811e-08    3.747685e-11    1.369689e-08    2.561802e-09   -2.900000e+00    9.605520e-01    1.383816e+00
    9.360565e-01    7.322205e+01    1.081510e+01    1.138023e+08    1.415799e-08    3.645606e-11    1.368854e-08    2.561257e-09   -2.890000e+00    9.605520e-01    1.376036e+00
    9.416905e-01    7.582010e+01    1.071404e+01    1.134183e+08    1.415788e-08    3.546656e-11    1.368015e-08    2.560714e-09   -2.880000e+00    9.605520e-01    1.368265e+00
    9.473656e-01    7.845193e+01    1.061332e+01    1.130301e+08    1.415776e-08    3.450726e-11    1.367173e-08    2.560172e-09   -2.870000e+00    9.605520e-01    1.360503e+00
    9.530845e-01    8.111652e+01    1.051294e+01    1.126378e+08    1.415766e-08    3.357714e-11    1.366328e-08    2.559631e-09   -2.860000e+00    9.605520e-01    1.352751e+00
    9.588473e-01    8.381283e+01    1.041292e+01    1.122416e+08    1.415756e-08    3.267518e-11    1.365480e-08    2.559091e-09   -2.850000e+00    9.605520e-01    1.345008e+00
    9.646566e-01    8.653995e+01    1.031325e+01    1.118415e+08    1.415747e-08    3.180043e-11    1.364630e-08    2.558553e-09   -2.840000e+00    9.605520e-01    1.337274e+00
    9.705139e-01    8.929708e+01    1.021395e+01    1.114379e+08    1.415738e-08    3.095197e-11    1.363776e-08    2.558016e-09   -2.830000e+00    9.605520e-01    1.329549e+00
    9.764221e-01    9.208365e+01    1.011500e+01    1.110308e+08    1.415729e-08    3.012891e-11    1.362919e-08    2.557479e-09   -2.820000e+00    9.605520e-01    1.321833e+00
    9.823809e-01    9.489877e+01    1.001642e+01    1.106204e+08    1.415719e-08    2.933038e-11    1.362059e-08    2.556945e-09   -2.810000e+00    9.605520e-01    1.314126e+00
    9.883931e-01    9.774207e+01    9.918205e+00    1.102068e+08    1.415711e-08    2.855557e-11    1.361196e-08    2.556410e-09   -2.800000e+00    9.605520e-01    1.306428e+00
    9.944600e-01    1.006130e+02    9.820360e+00    1.097900e+08    1.415703e-08    2.780368e-11    1.360331e-08    2.555876e-09   -2.790000e+00    9.605520e-01    1.298740e+00
    1.000583e+00    1.035111e+02    9.722885e+00    1.093702e+08    1.415694e-08    2.707395e-11    1.359462e-08    2.555344e-09   -2.780000e+00    9.605520e-01    1.291060e+00
    1.006765e+00    1.064361e+02    9.625785e+00    1.089475e+08    1.415686e-08    2.636562e-11    1.358590e-08    2.554811e-09   -2.770000e+00    9.605520e-01    1.283389e+00
    1.013004e+00    1.093877e+02    9.529070e+00    1.085220e+08    1.415677e-08    2.567801e-11    1.357716e-08    2.554279e-09   -2.760000e+00    9.605520e-01    1.275728e+00
    1.019306e+00    1.123656e+02    9.432730e+00    1.080937e+08    1.415668e-08    2.501041e-11    1.356839e-08    2.553748e-09   -2.750000e+00    9.605520e-01    1.268075e+00
    1.025670e+00    1.153700e+02    9.336770e+00    1.076628e+08    1.415659e-08    2.436218e-11    1.355959e-08    2.553217e-09   -2.740000e+00    9.605520e-01    1.260431e+00
    1.032097e+00    1.184003e+02    9.241200e+00    1.072292e+08    1.415650e-08    2.373267e-11    1.355075e-08    2.552686e-09   -2.730000e+00    9.605520e-01    1.252796e+00
    1.038591e+00    1.214569e+02    9.146015e+00    1.067932e+08    1.415641e-08    2.312127e-11    1.354189e-08    2.552156e-09   -2.720000e+00    9.605520e-01    1.245171e+00
    1.045150e+00    1.245395e+02    9.051220e+00    1.063546e+08    1.415631e-08    2.252741e-11    1.353301e-08    2.551625e-09   -2.710000e+00    9.605520e-01    1.237554e+00
    1.051778e+00    1.276485e+02    8.956820e+00    1.059136e+08    1.415620e-08    2.195049e-11    1.352409e-08    2.551094e-09   -2.700000e+00    9.605520e-01    1.229945e+00
    1.058477e+00    1.307837e+02    8.862810e+00    1.054702e+08    1.415609e-08    2.138998e-11    1.351514e-08    2.550564e-09   -2.690000e+00    9.605520e-01    1.222346e+00
    1.065247e+00    1.339454e+02    8.769200e+00    1.050245e+08    1.415598e-08    2.084535e-11    1.350616e-08    2.550033e-09   -2.680000e+00    9.605520e-01    1.214756e+00
    1.072090e+00    1.371340e+02    8.675985e+00    1.045765e+08    1.415585e-08    2.031608e-11    1.349716e-08    2.549501e-09   -2.670000e+00    9.605520e-01    1.207174e+00
    1.079008e+00    1.403494e+02    8.583170e+00    1.041262e+08    1.415573e-08    1.980170e-11    1.348812e-08    2.548970e-09   -2.660000e+00    9.605520e-01    1.199601e+00
    1.086001e+00    1.435921e+02    8.490760e+00    1.036738e+08    1.415559e-08    1.930170e-11    1.347905e-08    2.548438e-09   -2.650000e+00    9.605520e-01    1.192037e+00
    1.093073e+00    1.468624e+02    8.398750e+00    1.032191e+08    1.415546e-08    1.881566e-11    1.346995e-08    2.547905e-09   -2.640000e+00    9.605520e-01    1.184482e+00
    1.100225e+00    1.501605e+02    8.307150e+00    1.027624e+08    1.415530e-08    1.834311e-11    1.346083e-08    2.547373e-09   -2.630000e+00    9.605520e-01    1.176935e+00
    1.107457e+00    1.534871e+02    8.215955e+00    1.023036e+08    1.415514e-08    1.788365e-11    1.345167e-08    2.546839e-09   -2.620000e+00    9.605520e-01    1.169397e+00
    1.114772e+00    1.568424e+02    8.125175e+00    1.018427e+08    1.415498e-08    1.743685e-11    1.344248e-08    2.546304e-09   -2.610000e+00    9.605520e-01    1.161868e+00
    1.122172e+00    1.602267e+02    8.034805e+00    1.013797e+08    1.415481e-08    1.700232e-11    1.343326e-08    2.545768e-09   -2.600000e+00    9.605520e-01    1.154347e+00
    1.129658e+00    1.636408e+02    7.944845e+00    1.009146e+08    1.415462e-08    1.657967e-11    1.342400e-08    2.545233e-09   -2.590000e+00    9.605520e-01    1.146835e+00
    1.137231e+00    1.670852e+02    7.855305e+00    1.004477e+08    1.415443e-08    1.616855e-11    1.341472e-08    2.544695e-09   -2.580000e+00    9.605520e-01    1.139332e+00
    1.144895e+00    1.705601e+02    7.766180e+00    9.997865e+07    1.415422e-08    1.576859e-11    1.340541e-08    2.544157e-09   -2.570000e+00    9.605520e-01    1.131838e+00
    1.152650e+00    1.740662e+02    7.677475e+00    9.950771e+07    1.415400e-08    1.537944e-11    1.339607e-08    2.543617e-09   -2.560000e+00    9.605520e-01    1.124351e+00
    1.160498e+00    1.776044e+02    7.589195e+00    9.903482e+07    1.415378e-08    1.500078e-11    1.338669e-08    2.543076e-09   -2.550000e+00    9.605520e-01    1.116874e+00
    1.168442e+00    1.811749e+02    7.501330e+00    9.856000e+07    1.415353e-08    1.463228e-11    1.337728e-08    2.542534e-09   -2.540000e+00    9.605520e-01    1.109405e+00
    1.176483e+00    1.847784e+02    7.413895e+00    9.808330e+07    1.415328e-08    1.427364e-11    1.336783e-08    2.541990e-09   -2.530000e+00    9.605520e-01    1.101945e+00
    1.184623e+00    1.884157e+02    7.326885e+00    9.760468e+07    1.415302e-08    1.392455e-11    1.335836e-08    2.541444e-09   -2.520000e+00    9.605520e-01    1.094493e+00
    1.192863e+00    1.920872e+02    7.240305e+00    9.712417e+07    1.415274e-08    1.358473e-11    1.334884e-08    2.540897e-09   -2.510000e+00    9.605520e-01    1.087049e+00
    1.201208e+00    1.957939e+02    7.154155e+00    9.664184e+07    1.415244e-08    1.325389e-11    1.333930e-08    2.540348e-09   -2.500000e+00    9.605520e-01    1.079614e+00
    1.209657e+00    1.995363e+02    7.068435e+00    9.615763e+07    1.415213e-08    1.293177e-11    1.332972e-08    2.539798e-09   -2.490000e+00    9.605520e-01    1.072188e+00
    1.218215e+00    2.033154e+02    6.983145e+00    9.567160e+07    1.415181e-08    1.261811e-11    1.332011e-08    2.539245e-09   -2.480000e+00    9.605520e-01    1.064770e+00
    1.226881e+00    2.071316e+02    6.898295e+00    9.518372e+07    1.415147e-08    1.231265e-11    1.331046e-08    2.538691e-09   -2.470000e+00    9.605520e-01    1.057360e+00
    1.235659e+00    2.109860e+02    6.813880e+00    9.469403e+07    1.415112e-08    1.201514e-11    1.330078e-08    2.538134e-09   -2.460000e+00    9.605520e-01    1.049959e+00
    1.244553e+00    2.148791e+02    6.729900e+00    9.420253e+07    1.415075e-08    1.172537e-11    1.329106e-08    2.537575e-09   -2.450000e+00    9.605520e-01    1.042566e+00
    1.253561e+00    2.188118e+02    6.646365e+00    9.370923e+07    1.415036e-08    1.144309e-11    1.328130e-08    2.537014e-09   -2.440000e+00    9.605520e-01    1.035182e+00
    1.262690e+00    2.227852e+02    6.563270e+00    9.321420e+07    1.414996e-08    1.116809e-11    1.327151e-08    2.536451e-09   -2.430000e+00    9.605520e-01    1.027806e+00
    1.271939e+00    2.267999e+02    6.480620e+00    9.271732e+07    1.414953e-08    1.090015e-11    1.326169e-08    2.535885e-09   -2.420000e+00    9.605520e-01    1.020438e+00
    1.281313e+00    2.308567e+02    6.398410e+00    9.221864e+07    1.414910e-08    1.063907e-11    1.325182e-08    2.535316e-09   -2.410000e+00    9.605520e-01    1.013079e+00
    1.290813e+00    2.349567e+02    6.316650e+00    9.171822e+07    1.414864e-08    1.038465e-11    1.324191e-08    2.534745e-09   -2.400000e+00    9.605520e-01    1.005728e+00
    1.300442e+00    2.391008e+02    6.235340e+00    9.121608e+07    1.414816e-08    1.013669e-11    1.323197e-08    2.534171e-09   -2.390000e+00    9.605520e-01    9.983846e-01
    1.310203e+00    2.432899e+02    6.154480e+00    9.071214e+07    1.414767e-08    9.895015e-12    1.322199e-08    2.533595e-09   -2.380000e+00    9.605520e-01    9.910500e-01
    1.320100e+00    2.475252e+02    6.074070e+00    9.020653e+07    1.414715e-08    9.659440e-12    1.321196e-08    2.533015e-09   -2.370000e+00    9.605520e-01    9.837236e-01
    1.330134e+00    2.518072e+02    5.994110e+00    8.969906e+07    1.414661e-08    9.429790e-12    1.320190e-08    2.532432e-09   -2.360000e+00    9.605520e-01    9.764054e-01
    1.340308e+00    2.561372e+02    5.914610e+00    8.918991e+07    1.414605e-08    9.205895e-12    1.319181e-08    2.531847e-09   -2.350000e+00    9.605520e-01    9.690954e-01
    1.350627e+00    2.605165e+02    5.835565e+00    8.867904e+07    1.414547e-08    8.987590e-12    1.318166e-08    2.531257e-09   -2.340000e+00    9.605520e-01    9.617936e-01
    1.361092e+00    2.649457e+02    5.756975e+00    8.816640e+07    1.414487e-08    8.774720e-12    1.317148e-08    2.530665e-09   -2.330000e+00    9.605520e-01    9.544999e-01
    1.371707e+00    2.694262e+02    5.678850e+00    8.765208e+07    1.414424e-08    8.567135e-12    1.316125e-08    2.530069e-09   -2.320000e+00    9.605520e-01    9.472144e-01
    1.382477e+00    2.739589e+02    5.601180e+00    8.713600e+07    1.414360e-08    8.364680e-12    1.315098e-08    2.529470e-09   -2.310000e+00    9.605520e-01    9.399370e-01
    1.393401e+00    2.785452e+02    5.523980e+00    8.661820e+07    1.414293e-08    8.167215e-12    1.314066e-08    2.528866e-09   -2.300000e+00    9.605520e-01    9.326677e-01
    1.404487e+00    2.831862e+02    5.447240e+00    8.609870e+07    1.414223e-08    7.974595e-12    1.313030e-08    2.528259e-09   -2.290000e+00    9.605520e-01    9.254065e-01
    1.415737e+00    2.878830e+02    5.370970e+00    8.557750e+07    1.414151e-08    7.786695e-12    1.311990e-08    2.527649e-09   -2.280000e+00    9.605520e-01    9.181534e-01
    1.427155e+00    2.926371e+02    5.295165e+00    8.505460e+07    1.414077e-08    7.603380e-12    1.310945e-08    2.527034e-09   -2.270000e+00    9.605520e-01    9.109083e-01
    1.438743e+00    2.974492e+02    5.219830e+00    8.452996e+07    1.413999e-08    7.424520e-12    1.309895e-08    2.526416e-09   -2.260000e+00    9.605520e-01    9.036713e-01
    1.450508e+00    3.023213e+02    5.144965e+00    8.400364e+07    1.413920e-08    7.250000e-12    1.308840e-08    2.525793e-09   -2.250000e+00    9.605520e-01    8.964423e-01
    1.462451e+00    3.072542e+02    5.070575e+00    8.347558e+07    1.413837e-08    7.079695e-12    1.307782e-08    2.525166e-09   -2.240000e+00    9.605520e-01    8.892212e-01
    1.474580e+00    3.122496e+02    4.996655e+00    8.294590e+07    1.413751e-08    6.913490e-12    1.306718e-08    2.524534e-09   -2.230000e+00    9.605520e-01    8.820082e-01
    1.486896e+00    3.173087e+02    4.923214e+00    8.241443e+07    1.413664e-08    6.751275e-12    1.305649e-08    2.523897e-09   -2.220000e+00    9.605520e-01    8.748031e-01
