# GF180MCU-D pfet_03v3 gm/ID Processed Lookup Table
# Corner: ss
# Temperature: -40C
# W = 2.0 um
# L = 5.5 um (5500 nm)
# Columns: gm/id [1/V]  gm/gds [V/V]  id/W [A/m]  ft [Hz]  Cgg/W [F/m]  Cgd/W [F/m]  Cgs/W [F/m]  Cdb/W [F/m]  vgs [V]  vth [V]  vdsat [V]
# vdsat = BSIM saturation voltage (|VDS|_sat, positive); use for headroom / saturation / cascode-bias calculations
#           gm/id          gm/gds            id/W              ft           Cgg/W           Cgd/W           Cgs/W           Cdb/W             vgs             vth           vdsat
    7.161621e-01    1.043904e+01    1.238808e+01    8.163817e+07    1.729586e-08    1.513518e-10    1.709367e-08    3.165017e-09   -3.300000e+00    9.600370e-01    1.697662e+00
    7.219346e-01    1.099784e+01    1.229936e+01    8.171501e+07    1.729412e-08    1.465632e-10    1.708562e-08    3.164211e-09   -3.290000e+00    9.600370e-01    1.689504e+00
    7.276989e-01    1.159604e+01    1.221049e+01    8.178017e+07    1.729246e-08    1.419414e-10    1.707748e-08    3.163408e-09   -3.280000e+00    9.600370e-01    1.681357e+00
    7.334451e-01    1.223619e+01    1.212161e+01    8.183339e+07    1.729090e-08    1.374801e-10    1.706924e-08    3.162609e-09   -3.270000e+00    9.600370e-01    1.673220e+00
    7.391717e-01    1.292088e+01    1.203269e+01    8.187439e+07    1.728940e-08    1.331737e-10    1.706092e-08    3.161813e-09   -3.260000e+00    9.600370e-01    1.665093e+00
    7.448762e-01    1.365275e+01    1.194373e+01    8.190303e+07    1.728798e-08    1.290163e-10    1.705252e-08    3.161021e-09   -3.250000e+00    9.600370e-01    1.656977e+00
    7.505551e-01    1.443447e+01    1.185476e+01    8.191909e+07    1.728663e-08    1.250028e-10    1.704404e-08    3.160233e-09   -3.240000e+00    9.600370e-01    1.648870e+00
    7.562070e-01    1.526869e+01    1.176578e+01    8.192253e+07    1.728535e-08    1.211276e-10    1.703548e-08    3.159448e-09   -3.230000e+00    9.600370e-01    1.640774e+00
    7.618289e-01    1.615807e+01    1.167682e+01    8.191328e+07    1.728414e-08    1.173859e-10    1.702685e-08    3.158668e-09   -3.220000e+00    9.600370e-01    1.632687e+00
    7.674206e-01    1.710518e+01    1.158787e+01    8.189145e+07    1.728298e-08    1.137727e-10    1.701814e-08    3.157891e-09   -3.210000e+00    9.600370e-01    1.624611e+00
    7.729809e-01    1.811253e+01    1.149897e+01    8.185711e+07    1.728189e-08    1.102833e-10    1.700936e-08    3.157119e-09   -3.200000e+00    9.600370e-01    1.616544e+00
    7.785090e-01    1.918252e+01    1.141010e+01    8.181034e+07    1.728086e-08    1.069133e-10    1.700051e-08    3.156351e-09   -3.190000e+00    9.600370e-01    1.608488e+00
    7.840051e-01    2.031743e+01    1.132131e+01    8.175138e+07    1.727987e-08    1.036581e-10    1.699159e-08    3.155586e-09   -3.180000e+00    9.600370e-01    1.600441e+00
    7.894697e-01    2.151935e+01    1.123259e+01    8.168049e+07    1.727895e-08    1.005137e-10    1.698261e-08    3.154827e-09   -3.170000e+00    9.600370e-01    1.592405e+00
    7.949037e-01    2.279023e+01    1.114396e+01    8.159790e+07    1.727807e-08    9.747585e-11    1.697356e-08    3.154071e-09   -3.160000e+00    9.600370e-01    1.584378e+00
    8.003085e-01    2.413179e+01    1.105543e+01    8.150399e+07    1.727724e-08    9.454080e-11    1.696446e-08    3.153318e-09   -3.150000e+00    9.600370e-01    1.576361e+00
    8.056859e-01    2.554553e+01    1.096701e+01    8.139905e+07    1.727646e-08    9.170475e-11    1.695529e-08    3.152570e-09   -3.140000e+00    9.600370e-01    1.568354e+00
    8.110383e-01    2.703272e+01    1.087871e+01    8.128356e+07    1.727572e-08    8.896410e-11    1.694606e-08    3.151826e-09   -3.130000e+00    9.600370e-01    1.560357e+00
    8.163671e-01    2.859439e+01    1.079055e+01    8.115787e+07    1.727502e-08    8.631530e-11    1.693678e-08    3.151086e-09   -3.120000e+00    9.600370e-01    1.552370e+00
    8.216754e-01    3.023128e+01    1.070254e+01    8.102238e+07    1.727437e-08    8.375500e-11    1.692744e-08    3.150350e-09   -3.110000e+00    9.600370e-01    1.544393e+00
    8.269655e-01    3.194390e+01    1.061468e+01    8.087750e+07    1.727375e-08    8.128005e-11    1.691805e-08    3.149617e-09   -3.100000e+00    9.600370e-01    1.536425e+00
    8.322411e-01    3.373250e+01    1.052698e+01    8.072372e+07    1.727317e-08    7.888730e-11    1.690860e-08    3.148888e-09   -3.090000e+00    9.600370e-01    1.528468e+00
    8.375044e-01    3.559703e+01    1.043946e+01    8.056140e+07    1.727262e-08    7.657370e-11    1.689911e-08    3.148163e-09   -3.080000e+00    9.600370e-01    1.520520e+00
    8.427588e-01    3.753727e+01    1.035212e+01    8.039103e+07    1.727210e-08    7.433650e-11    1.688956e-08    3.147442e-09   -3.070000e+00    9.600370e-01    1.512581e+00
    8.480074e-01    3.955271e+01    1.026498e+01    8.021300e+07    1.727162e-08    7.217280e-11    1.687997e-08    3.146724e-09   -3.060000e+00    9.600370e-01    1.504653e+00
    8.532530e-01    4.164259e+01    1.017802e+01    8.002763e+07    1.727116e-08    7.008005e-11    1.687032e-08    3.146009e-09   -3.050000e+00    9.600370e-01    1.496734e+00
    8.584992e-01    4.380604e+01    1.009129e+01    7.983545e+07    1.727073e-08    6.805560e-11    1.686063e-08    3.145298e-09   -3.040000e+00    9.600370e-01    1.488825e+00
    8.637489e-01    4.604193e+01    1.000476e+01    7.963677e+07    1.727033e-08    6.609705e-11    1.685089e-08    3.144590e-09   -3.030000e+00    9.600370e-01    1.480925e+00
    8.690043e-01    4.834895e+01    9.918455e+00    7.943189e+07    1.726996e-08    6.420200e-11    1.684111e-08    3.143886e-09   -3.020000e+00    9.600370e-01    1.473035e+00
    8.742695e-01    5.072576e+01    9.832380e+00    7.922128e+07    1.726960e-08    6.236815e-11    1.683129e-08    3.143185e-09   -3.010000e+00    9.600370e-01    1.465155e+00
    8.795469e-01    5.317079e+01    9.746535e+00    7.900515e+07    1.726927e-08    6.059335e-11    1.682141e-08    3.142487e-09   -3.000000e+00    9.600370e-01    1.457284e+00
    8.848392e-01    5.568238e+01    9.660930e+00    7.878386e+07    1.726896e-08    5.887550e-11    1.681150e-08    3.141791e-09   -2.990000e+00    9.600370e-01    1.449423e+00
    8.901491e-01    5.825884e+01    9.575570e+00    7.855768e+07    1.726867e-08    5.721250e-11    1.680155e-08    3.141099e-09   -2.980000e+00    9.600370e-01    1.441571e+00
    8.954792e-01    6.089841e+01    9.490460e+00    7.832690e+07    1.726839e-08    5.560250e-11    1.679154e-08    3.140409e-09   -2.970000e+00    9.600370e-01    1.433729e+00
    9.008325e-01    6.359927e+01    9.405600e+00    7.809174e+07    1.726814e-08    5.404355e-11    1.678150e-08    3.139722e-09   -2.960000e+00    9.600370e-01    1.425896e+00
    9.062108e-01    6.635966e+01    9.321005e+00    7.785250e+07    1.726790e-08    5.253380e-11    1.677143e-08    3.139038e-09   -2.950000e+00    9.600370e-01    1.418073e+00
    9.116164e-01    6.917768e+01    9.236670e+00    7.760931e+07    1.726768e-08    5.107165e-11    1.676131e-08    3.138356e-09   -2.940000e+00    9.600370e-01    1.410259e+00
    9.170525e-01    7.205158e+01    9.152600e+00    7.736246e+07    1.726747e-08    4.965530e-11    1.675115e-08    3.137677e-09   -2.930000e+00    9.600370e-01    1.402455e+00
    9.225206e-01    7.497959e+01    9.068800e+00    7.711207e+07    1.726727e-08    4.828322e-11    1.674094e-08    3.137000e-09   -2.920000e+00    9.600370e-01    1.394660e+00
    9.280228e-01    7.795993e+01    8.985275e+00    7.685838e+07    1.726708e-08    4.695382e-11    1.673071e-08    3.136325e-09   -2.910000e+00    9.600370e-01    1.386875e+00
    9.335607e-01    8.099097e+01    8.902030e+00    7.660149e+07    1.726691e-08    4.566564e-11    1.672044e-08    3.135652e-09   -2.900000e+00    9.600370e-01    1.379099e+00
    9.391370e-01    8.407114e+01    8.819065e+00    7.634160e+07    1.726674e-08    4.441723e-11    1.671012e-08    3.134982e-09   -2.890000e+00    9.600370e-01    1.371332e+00
    9.447535e-01    8.719882e+01    8.736385e+00    7.607887e+07    1.726658e-08    4.320721e-11    1.669977e-08    3.134313e-09   -2.880000e+00    9.600370e-01    1.363574e+00
    9.504119e-01    9.037254e+01    8.653990e+00    7.581337e+07    1.726643e-08    4.203427e-11    1.668938e-08    3.133646e-09   -2.870000e+00    9.600370e-01    1.355826e+00
    9.561135e-01    9.359102e+01    8.571890e+00    7.554527e+07    1.726628e-08    4.089712e-11    1.667896e-08    3.132980e-09   -2.860000e+00    9.600370e-01    1.348087e+00
    9.618614e-01    9.685286e+01    8.490080e+00    7.527470e+07    1.726615e-08    3.979454e-11    1.666849e-08    3.132316e-09   -2.850000e+00    9.600370e-01    1.340358e+00
    9.676562e-01    1.001569e+02    8.408565e+00    7.500168e+07    1.726602e-08    3.872534e-11    1.665800e-08    3.131654e-09   -2.840000e+00    9.600370e-01    1.332638e+00
    9.734994e-01    1.035021e+02    8.327350e+00    7.472635e+07    1.726589e-08    3.768838e-11    1.664746e-08    3.130993e-09   -2.830000e+00    9.600370e-01    1.324926e+00
    9.793941e-01    1.068872e+02    8.246430e+00    7.444883e+07    1.726576e-08    3.668258e-11    1.663689e-08    3.130333e-09   -2.820000e+00    9.600370e-01    1.317225e+00
    9.853395e-01    1.103115e+02    8.165820e+00    7.416914e+07    1.726564e-08    3.570687e-11    1.662629e-08    3.129674e-09   -2.810000e+00    9.600370e-01    1.309532e+00
    9.913394e-01    1.137741e+02    8.085510e+00    7.388740e+07    1.726552e-08    3.476024e-11    1.661564e-08    3.129017e-09   -2.800000e+00    9.600370e-01    1.301848e+00
    9.973943e-01    1.172740e+02    8.005510e+00    7.360367e+07    1.726540e-08    3.384170e-11    1.660496e-08    3.128361e-09   -2.790000e+00    9.600370e-01    1.294174e+00
    1.003506e+00    1.208109e+02    7.925820e+00    7.331801e+07    1.726528e-08    3.295033e-11    1.659425e-08    3.127705e-09   -2.780000e+00    9.600370e-01    1.286509e+00
    1.009676e+00    1.243840e+02    7.846440e+00    7.303051e+07    1.726515e-08    3.208521e-11    1.658349e-08    3.127050e-09   -2.770000e+00    9.600370e-01    1.278853e+00
    1.015906e+00    1.279928e+02    7.767370e+00    7.274115e+07    1.726503e-08    3.124547e-11    1.657271e-08    3.126395e-09   -2.760000e+00    9.600370e-01    1.271206e+00
    1.022196e+00    1.316369e+02    7.688620e+00    7.245005e+07    1.726491e-08    3.043025e-11    1.656188e-08    3.125742e-09   -2.750000e+00    9.600370e-01    1.263568e+00
    1.028550e+00    1.353159e+02    7.610185e+00    7.215720e+07    1.726478e-08    2.963876e-11    1.655103e-08    3.125088e-09   -2.740000e+00    9.600370e-01    1.255939e+00
    1.034968e+00    1.390296e+02    7.532070e+00    7.186277e+07    1.726465e-08    2.887022e-11    1.654014e-08    3.124435e-09   -2.730000e+00    9.600370e-01    1.248319e+00
    1.041451e+00    1.427778e+02    7.454280e+00    7.156661e+07    1.726452e-08    2.812387e-11    1.652921e-08    3.123782e-09   -2.720000e+00    9.600370e-01    1.240708e+00
    1.048003e+00    1.465603e+02    7.376805e+00    7.126892e+07    1.726437e-08    2.739897e-11    1.651824e-08    3.123129e-09   -2.710000e+00    9.600370e-01    1.233107e+00
    1.054622e+00    1.503769e+02    7.299660e+00    7.096963e+07    1.726423e-08    2.669485e-11    1.650723e-08    3.122476e-09   -2.700000e+00    9.600370e-01    1.225514e+00
    1.061312e+00    1.542279e+02    7.222840e+00    7.066884e+07    1.726408e-08    2.601082e-11    1.649620e-08    3.121823e-09   -2.690000e+00    9.600370e-01    1.217930e+00
    1.068074e+00    1.581131e+02    7.146350e+00    7.036656e+07    1.726392e-08    2.534622e-11    1.648512e-08    3.121170e-09   -2.680000e+00    9.600370e-01    1.210355e+00
    1.074909e+00    1.620327e+02    7.070185e+00    7.006277e+07    1.726375e-08    2.470044e-11    1.647401e-08    3.120516e-09   -2.670000e+00    9.600370e-01    1.202789e+00
    1.081820e+00    1.659868e+02    6.994350e+00    6.975757e+07    1.726358e-08    2.407287e-11    1.646286e-08    3.119862e-09   -2.660000e+00    9.600370e-01    1.195232e+00
    1.088806e+00    1.699757e+02    6.918850e+00    6.945095e+07    1.726340e-08    2.346293e-11    1.645168e-08    3.119208e-09   -2.650000e+00    9.600370e-01    1.187683e+00
    1.095871e+00    1.739997e+02    6.843685e+00    6.914296e+07    1.726321e-08    2.287006e-11    1.644045e-08    3.118553e-09   -2.640000e+00    9.600370e-01    1.180144e+00
    1.103015e+00    1.780589e+02    6.768855e+00    6.883357e+07    1.726301e-08    2.229371e-11    1.642920e-08    3.117896e-09   -2.630000e+00    9.600370e-01    1.172613e+00
    1.110240e+00    1.821537e+02    6.694365e+00    6.852279e+07    1.726280e-08    2.173336e-11    1.641790e-08    3.117240e-09   -2.620000e+00    9.600370e-01    1.165091e+00
    1.117548e+00    1.862847e+02    6.620210e+00    6.821070e+07    1.726258e-08    2.118850e-11    1.640656e-08    3.116582e-09   -2.610000e+00    9.600370e-01    1.157578e+00
    1.124942e+00    1.904522e+02    6.546395e+00    6.789731e+07    1.726235e-08    2.065866e-11    1.639519e-08    3.115923e-09   -2.600000e+00    9.600370e-01    1.150074e+00
    1.132421e+00    1.946565e+02    6.472925e+00    6.758258e+07    1.726210e-08    2.014335e-11    1.638379e-08    3.115263e-09   -2.590000e+00    9.600370e-01    1.142579e+00
    1.139989e+00    1.988985e+02    6.399795e+00    6.726662e+07    1.726184e-08    1.964215e-11    1.637234e-08    3.114602e-09   -2.580000e+00    9.600370e-01    1.135092e+00
    1.147646e+00    2.031784e+02    6.327010e+00    6.694934e+07    1.726158e-08    1.915458e-11    1.636085e-08    3.113939e-09   -2.570000e+00    9.600370e-01    1.127614e+00
    1.155394e+00    2.074968e+02    6.254575e+00    6.663078e+07    1.726129e-08    1.868025e-11    1.634932e-08    3.113275e-09   -2.560000e+00    9.600370e-01    1.120145e+00
    1.163238e+00    2.118546e+02    6.182480e+00    6.631102e+07    1.726099e-08    1.821873e-11    1.633775e-08    3.112609e-09   -2.550000e+00    9.600370e-01    1.112684e+00
    1.171175e+00    2.162521e+02    6.110740e+00    6.598995e+07    1.726068e-08    1.776964e-11    1.632615e-08    3.111941e-09   -2.540000e+00    9.600370e-01    1.105232e+00
    1.179211e+00    2.206902e+02    6.039345e+00    6.566769e+07    1.726035e-08    1.733261e-11    1.631450e-08    3.111272e-09   -2.530000e+00    9.600370e-01    1.097789e+00
    1.187345e+00    2.251696e+02    5.968305e+00    6.534420e+07    1.726000e-08    1.690725e-11    1.630281e-08    3.110601e-09   -2.520000e+00    9.600370e-01    1.090354e+00
    1.195580e+00    2.296910e+02    5.897620e+00    6.501952e+07    1.725964e-08    1.649321e-11    1.629108e-08    3.109927e-09   -2.510000e+00    9.600370e-01    1.082928e+00
    1.203919e+00    2.342552e+02    5.827285e+00    6.469361e+07    1.725927e-08    1.609016e-11    1.627931e-08    3.109251e-09   -2.500000e+00    9.600370e-01    1.075511e+00
    1.212363e+00    2.388629e+02    5.757310e+00    6.436655e+07    1.725886e-08    1.569776e-11    1.626750e-08    3.108574e-09   -2.490000e+00    9.600370e-01    1.068102e+00
    1.220915e+00    2.435149e+02    5.687685e+00    6.403823e+07    1.725845e-08    1.531570e-11    1.625563e-08    3.107893e-09   -2.480000e+00    9.600370e-01    1.060702e+00
    1.229576e+00    2.482123e+02    5.618425e+00    6.370877e+07    1.725802e-08    1.494365e-11    1.624374e-08    3.107211e-09   -2.470000e+00    9.600370e-01    1.053310e+00
    1.238350e+00    2.529558e+02    5.549520e+00    6.337815e+07    1.725757e-08    1.458134e-11    1.623180e-08    3.106526e-09   -2.460000e+00    9.600370e-01    1.045927e+00
    1.247237e+00    2.577462e+02    5.480980e+00    6.304631e+07    1.725709e-08    1.422845e-11    1.621981e-08    3.105838e-09   -2.450000e+00    9.600370e-01    1.038552e+00
    1.256242e+00    2.625849e+02    5.412800e+00    6.271338e+07    1.725660e-08    1.388473e-11    1.620778e-08    3.105146e-09   -2.440000e+00    9.600370e-01    1.031186e+00
    1.265365e+00    2.674723e+02    5.344985e+00    6.237925e+07    1.725608e-08    1.354989e-11    1.619570e-08    3.104453e-09   -2.430000e+00    9.600370e-01    1.023828e+00
    1.274608e+00    2.724096e+02    5.277535e+00    6.204395e+07    1.725554e-08    1.322368e-11    1.618358e-08    3.103756e-09   -2.420000e+00    9.600370e-01    1.016479e+00
    1.283977e+00    2.773980e+02    5.210450e+00    6.170755e+07    1.725498e-08    1.290585e-11    1.617141e-08    3.103056e-09   -2.410000e+00    9.600370e-01    1.009138e+00
    1.293473e+00    2.824383e+02    5.143730e+00    6.136995e+07    1.725440e-08    1.259614e-11    1.615919e-08    3.102353e-09   -2.400000e+00    9.600370e-01    1.001805e+00
    1.303097e+00    2.875319e+02    5.077385e+00    6.103126e+07    1.725380e-08    1.229432e-11    1.614693e-08    3.101646e-09   -2.390000e+00    9.600370e-01    9.944809e-01
    1.312853e+00    2.926795e+02    5.011405e+00    6.069139e+07    1.725317e-08    1.200019e-11    1.613461e-08    3.100936e-09   -2.380000e+00    9.600370e-01    9.871651e-01
    1.322745e+00    2.978826e+02    4.945800e+00    6.035045e+07    1.725251e-08    1.171348e-11    1.612225e-08    3.100221e-09   -2.370000e+00    9.600370e-01    9.798576e-01
    1.332773e+00    3.031419e+02    4.880567e+00    6.000830e+07    1.725182e-08    1.143402e-11    1.610985e-08    3.099504e-09   -2.360000e+00    9.600370e-01    9.725585e-01
    1.342942e+00    3.084591e+02    4.815707e+00    5.966507e+07    1.725112e-08    1.116158e-11    1.609738e-08    3.098783e-09   -2.350000e+00    9.600370e-01    9.652678e-01
    1.353255e+00    3.138351e+02    4.751223e+00    5.932071e+07    1.725038e-08    1.089596e-11    1.608487e-08    3.098057e-09   -2.340000e+00    9.600370e-01    9.579853e-01
    1.363715e+00    3.192715e+02    4.687114e+00    5.897525e+07    1.724963e-08    1.063698e-11    1.607232e-08    3.097327e-09   -2.330000e+00    9.600370e-01    9.507111e-01
    1.374325e+00    3.247692e+02    4.623385e+00    5.862866e+07    1.724884e-08    1.038444e-11    1.605970e-08    3.096593e-09   -2.320000e+00    9.600370e-01    9.434451e-01
    1.385088e+00    3.303297e+02    4.560034e+00    5.828093e+07    1.724802e-08    1.013815e-11    1.604703e-08    3.095854e-09   -2.310000e+00    9.600370e-01    9.361874e-01
    1.396008e+00    3.359543e+02    4.497065e+00    5.793212e+07    1.724717e-08    9.897965e-12    1.603431e-08    3.095111e-09   -2.300000e+00    9.600370e-01    9.289379e-01
    1.407088e+00    3.416444e+02    4.434476e+00    5.758217e+07    1.724630e-08    9.663690e-12    1.602153e-08    3.094363e-09   -2.290000e+00    9.600370e-01    9.216967e-01
    1.418333e+00    3.474017e+02    4.372271e+00    5.723113e+07    1.724539e-08    9.435165e-12    1.600870e-08    3.093611e-09   -2.280000e+00    9.600370e-01    9.144636e-01
    1.429744e+00    3.532271e+02    4.310450e+00    5.687896e+07    1.724445e-08    9.212235e-12    1.599581e-08    3.092854e-09   -2.270000e+00    9.600370e-01    9.072387e-01
    1.441327e+00    3.591226e+02    4.249015e+00    5.652571e+07    1.724348e-08    8.994740e-12    1.598286e-08    3.092090e-09   -2.260000e+00    9.600370e-01    9.000220e-01
    1.453086e+00    3.650897e+02    4.187966e+00    5.617137e+07    1.724248e-08    8.782530e-12    1.596985e-08    3.091323e-09   -2.250000e+00    9.600370e-01    8.928133e-01
    1.465024e+00    3.711295e+02    4.127306e+00    5.581590e+07    1.724144e-08    8.575465e-12    1.595678e-08    3.090550e-09   -2.240000e+00    9.600370e-01    8.856129e-01
    1.477145e+00    3.772442e+02    4.067035e+00    5.545934e+07    1.724037e-08    8.373400e-12    1.594366e-08    3.089771e-09   -2.230000e+00    9.600370e-01    8.784205e-01
    1.489455e+00    3.834352e+02    4.007154e+00    5.510169e+07    1.723926e-08    8.176200e-12    1.593048e-08    3.088987e-09   -2.220000e+00    9.600370e-01    8.712362e-01
