# GF180MCU-D nfet_03v3 gm/ID Processed Lookup Table
# Corner: sf
# Temperature: 25C
# W = 2.0 um
# L = 0.28 um (280 nm)
# Columns: gm/id [1/V]  gm/gds [V/V]  id/W [A/m]  ft [Hz]  Cgg/W [F/m]  Cgd/W [F/m]  Cgs/W [F/m]  Cdb/W [F/m]  vgs [V]  vth [V]  vdsat [V]
# vdsat = BSIM saturation voltage (|VDS|_sat, positive); use for headroom / saturation / cascode-bias calculations
#           gm/id          gm/gds            id/W              ft           Cgg/W           Cgd/W           Cgs/W           Cdb/W             vgs             vth           vdsat
    2.748551e+01    3.467970e+01    1.781169e-04    2.284029e+06    3.411358e-10    3.846345e-13    2.434472e-11    3.215792e-12    3.300000e-01    7.040272e-01    4.852667e-02
    2.748413e+01    3.466302e+01    2.344644e-04    3.001744e+06    3.416689e-10    4.229376e-13    2.679888e-11    3.509324e-12    3.400000e-01    7.040272e-01    4.852876e-02
    2.747105e+01    3.464472e+01    3.086149e-04    3.940548e+06    3.424172e-10    4.650166e-13    2.949667e-11    3.828756e-12    3.500000e-01    7.040272e-01    4.853151e-02
    2.744745e+01    3.462459e+01    4.061412e-04    5.166560e+06    3.433979e-10    5.112065e-13    3.245925e-11    4.176071e-12    3.600000e-01    7.040272e-01    4.853513e-02
    2.741401e+01    3.460236e+01    5.343345e-04    6.764788e+06    3.446289e-10    5.618640e-13    3.570912e-11    4.553340e-12    3.700000e-01    7.040272e-01    4.853989e-02
    2.737098e+01    3.457774e+01    7.027210e-04    8.844129e+06    3.461293e-10    6.173655e-13    3.927000e-11    4.962715e-12    3.800000e-01    7.040272e-01    4.854614e-02
    2.731823e+01    3.455043e+01    9.237300e-04    1.154355e+07    3.479191e-10    6.781080e-13    4.316680e-11    5.406415e-12    3.900000e-01    7.040272e-01    4.855434e-02
    2.725537e+01    3.452007e+01    1.213546e-03    1.503960e+07    3.500196e-10    7.445070e-13    4.742558e-11    5.886720e-12    4.000000e-01    7.040272e-01    4.856509e-02
    2.718177e+01    3.448629e+01    1.593204e-03    1.955548e+07    3.524527e-10    8.169945e-13    5.207335e-11    6.405935e-12    4.100000e-01    7.040272e-01    4.857916e-02
    2.709653e+01    3.444867e+01    2.089980e-03    2.537188e+07    3.552412e-10    8.960170e-13    5.713795e-11    6.966385e-12    4.200000e-01    7.040272e-01    4.859757e-02
    2.699861e+01    3.440682e+01    2.739147e-03    3.283968e+07    3.584082e-10    9.820315e-13    6.264770e-11    7.570375e-12    4.300000e-01    7.040272e-01    4.862162e-02
    2.688674e+01    3.436028e+01    3.586192e-03    4.239457e+07    3.619775e-10    1.075502e-12    6.863135e-11    8.220165e-12    4.400000e-01    7.040272e-01    4.865297e-02
    2.675955e+01    3.430861e+01    4.689571e-03    5.457370e+07    3.659727e-10    1.176890e-12    7.511750e-11    8.917930e-12    4.500000e-01    7.040272e-01    4.869378e-02
    2.661556e+01    3.425144e+01    6.124130e-03    7.003404e+07    3.704171e-10    1.286654e-12    8.213425e-11    9.665700e-12    4.600000e-01    7.040272e-01    4.874677e-02
    2.645322e+01    3.418839e+01    7.985295e-03    8.957203e+07    3.753334e-10    1.405240e-12    8.970860e-11    1.046533e-11    4.700000e-01    7.040272e-01    4.881541e-02
    2.627093e+01    3.411918e+01    1.039417e-02    1.141440e+08    3.807431e-10    1.533066e-12    9.786620e-11    1.131844e-11    4.800000e-01    7.040272e-01    4.890408e-02
    2.606715e+01    3.404366e+01    1.350364e-02    1.448867e+08    3.866661e-10    1.670519e-12    1.066302e-10    1.222635e-11    4.900000e-01    7.040272e-01    4.901824e-02
    2.584046e+01    3.396186e+01    1.750562e-02    1.831356e+08    3.931200e-10    1.817944e-12    1.160211e-10    1.319000e-11    5.000000e-01    7.040272e-01    4.916469e-02
    2.558957e+01    3.387401e+01    2.263954e-02    2.304418e+08    4.001192e-10    1.975626e-12    1.260553e-10    1.420994e-11    5.100000e-01    7.040272e-01    4.935179e-02
    2.531345e+01    3.378062e+01    2.920207e-02    2.885831e+08    4.076751e-10    2.143781e-12    1.367451e-10    1.528621e-11    5.200000e-01    7.040272e-01    4.958969e-02
    2.501145e+01    3.368260e+01    3.755816e-02    3.595710e+08    4.157944e-10    2.322542e-12    1.480972e-10    1.641829e-11    5.300000e-01    7.040272e-01    4.989059e-02
    2.468320e+01    3.358115e+01    4.815335e-02    4.456476e+08    4.244792e-10    2.511948e-12    1.601122e-10    1.760508e-11    5.400000e-01    7.040272e-01    5.026896e-02
    2.432880e+01    3.347795e+01    6.152705e-02    5.492769e+08    4.337261e-10    2.711927e-12    1.727840e-10    1.884480e-11    5.500000e-01    7.040272e-01    5.074164e-02
    2.394868e+01    3.337500e+01    7.832685e-02    6.731223e+08    4.435253e-10    2.922290e-12    1.860990e-10    2.013499e-11    5.600000e-01    7.040272e-01    5.132790e-02
    2.354367e+01    3.327464e+01    9.932295e-02    8.200136e+08    4.538610e-10    3.142721e-12    2.000352e-10    2.147249e-11    5.700000e-01    7.040272e-01    5.204931e-02
    2.311474e+01    3.317937e+01    1.254231e-01    9.928973e+08    4.647103e-10    3.372770e-12    2.145628e-10    2.285342e-11    5.800000e-01    7.040272e-01    5.292948e-02
    2.266301e+01    3.309170e+01    1.576858e-01    1.194768e+09    4.760434e-10    3.611850e-12    2.296431e-10    2.427321e-11    5.900000e-01    7.040272e-01    5.399351e-02
    2.218953e+01    3.301388e+01    1.973322e-01    1.428577e+09    4.878235e-10    3.859240e-12    2.452291e-10    2.572664e-11    6.000000e-01    7.040272e-01    5.526729e-02
    2.169522e+01    3.294776e+01    2.457545e-01    1.697109e+09    5.000070e-10    4.114087e-12    2.612659e-10    2.720789e-11    6.100000e-01    7.040272e-01    5.677655e-02
    2.118082e+01    3.289442e+01    3.045191e-01    2.002836e+09    5.125450e-10    4.375419e-12    2.776912e-10    2.871064e-11    6.200000e-01    7.040272e-01    5.854580e-02
    2.064697e+01    3.285416e+01    3.753625e-01    2.347750e+09    5.253825e-10    4.642158e-12    2.944361e-10    3.022818e-11    6.300000e-01    7.040272e-01    6.059713e-02
    2.009429e+01    3.282625e+01    4.601797e-01    2.733174e+09    5.384595e-10    4.913133e-12    3.114265e-10    3.175349e-11    6.400000e-01    7.040272e-01    6.294915e-02
    1.952371e+01    3.280925e+01    5.610020e-01    3.159614e+09    5.517125e-10    5.187110e-12    3.285843e-10    3.327942e-11    6.500000e-01    7.040272e-01    6.561602e-02
    1.893657e+01    3.280090e+01    6.799655e-01    3.626606e+09    5.650775e-10    5.462805e-12    3.458289e-10    3.479879e-11    6.600000e-01    7.040272e-01    6.860672e-02
    1.833491e+01    3.279852e+01    8.192695e-01    4.132684e+09    5.784870e-10    5.738915e-12    3.630786e-10    3.630455e-11    6.700000e-01    7.040272e-01    7.192471e-02
    1.772147e+01    3.279923e+01    9.811310e-01    4.675384e+09    5.918745e-10    6.014145e-12    3.802526e-10    3.778992e-11    6.800000e-01    7.040272e-01    7.556790e-02
    1.709966e+01    3.280012e+01    1.167733e+00    5.251326e+09    6.051765e-10    6.287235e-12    3.972722e-10    3.924847e-11    6.900000e-01    7.040272e-01    7.952893e-02
    1.647344e+01    3.279857e+01    1.381173e+00    5.856418e+09    6.183300e-10    6.556965e-12    4.140625e-10    4.067429e-11    7.000000e-01    7.040272e-01    8.379582e-02
    1.584704e+01    3.279232e+01    1.623421e+00    6.486035e+09    6.312775e-10    6.822200e-12    4.305532e-10    4.206203e-11    7.100000e-01    7.040272e-01    8.835269e-02
    1.522479e+01    3.277949e+01    1.896275e+00    7.135271e+09    6.439650e-10    7.081895e-12    4.466806e-10    4.340701e-11    7.200000e-01    7.040272e-01    9.318065e-02
    1.461078e+01    3.275871e+01    2.201331e+00    7.799145e+09    6.563445e-10    7.335120e-12    4.623873e-10    4.470523e-11    7.300000e-01    7.040272e-01    9.825870e-02
    1.400874e+01    3.272900e+01    2.539963e+00    8.472804e+09    6.683735e-10    7.581045e-12    4.776238e-10    4.595343e-11    7.400000e-01    7.040272e-01    1.035646e-01
    1.342186e+01    3.268980e+01    2.913309e+00    9.151659e+09    6.800165e-10    7.818980e-12    4.923482e-10    4.714905e-11    7.500000e-01    7.040272e-01    1.090754e-01
    1.285276e+01    3.264078e+01    3.322268e+00    9.831513e+09    6.912430e-10    8.048350e-12    5.065265e-10    4.829027e-11    7.600000e-01    7.040272e-01    1.147685e-01
    1.230345e+01    3.258193e+01    3.767503e+00    1.050859e+10    7.020310e-10    8.268715e-12    5.201330e-10    4.937592e-11    7.700000e-01    7.040272e-01    1.206216e-01
    1.177538e+01    3.251341e+01    4.249448e+00    1.117961e+10    7.123620e-10    8.479740e-12    5.331485e-10    5.040545e-11    7.800000e-01    7.040272e-01    1.266134e-01
    1.126947e+01    3.243551e+01    4.768325e+00    1.184176e+10    7.222260e-10    8.681225e-12    5.455625e-10    5.137895e-11    7.900000e-01    7.040272e-01    1.327238e-01
    1.078621e+01    3.234865e+01    5.324160e+00    1.249272e+10    7.316155e-10    8.873055e-12    5.573695e-10    5.229695e-11    8.000000e-01    7.040272e-01    1.389339e-01
    1.032572e+01    3.225333e+01    5.916800e+00    1.313060e+10    7.405300e-10    9.055225e-12    5.685700e-10    5.316045e-11    8.100000e-01    7.040272e-01    1.452265e-01
    9.887793e+00    3.215007e+01    6.545940e+00    1.375389e+10    7.489725e-10    9.227805e-12    5.791710e-10    5.397080e-11    8.200000e-01    7.040272e-01    1.515856e-01
    9.472032e+00    3.203947e+01    7.211135e+00    1.436149e+10    7.569505e-10    9.390950e-12    5.891830e-10    5.472975e-11    8.300000e-01    7.040272e-01    1.579967e-01
    9.077835e+00    3.192211e+01    7.911820e+00    1.495260e+10    7.644730e-10    9.544865e-12    5.986200e-10    5.543915e-11    8.400000e-01    7.040272e-01    1.644469e-01
    8.704464e+00    3.179857e+01    8.647350e+00    1.552671e+10    7.715530e-10    9.689820e-12    6.075000e-10    5.610120e-11    8.500000e-01    7.040272e-01    1.709245e-01
    8.351117e+00    3.166946e+01    9.416980e+00    1.608354e+10    7.782060e-10    9.826110e-12    6.158425e-10    5.671815e-11    8.600000e-01    7.040272e-01    1.774191e-01
    8.016903e+00    3.153532e+01    1.021992e+01    1.662305e+10    7.844475e-10    9.954070e-12    6.236700e-10    5.729230e-11    8.700000e-01    7.040272e-01    1.839215e-01
    7.700926e+00    3.139674e+01    1.105534e+01    1.714531e+10    7.902960e-10    1.007407e-11    6.310050e-10    5.782605e-11    8.800000e-01    7.040272e-01    1.904236e-01
    7.402258e+00    3.125423e+01    1.192235e+01    1.765060e+10    7.957690e-10    1.018648e-11    6.378715e-10    5.832180e-11    8.900000e-01    7.040272e-01    1.969186e-01
    7.119968e+00    3.110826e+01    1.282009e+01    1.813920e+10    8.008865e-10    1.029167e-11    6.442945e-10    5.878185e-11    9.000000e-01    7.040272e-01    2.034002e-01
    6.853156e+00    3.095931e+01    1.374763e+01    1.861158e+10    8.056665e-10    1.039005e-11    6.502985e-10    5.920865e-11    9.100000e-01    7.040272e-01    2.098631e-01
    6.600940e+00    3.080781e+01    1.470408e+01    1.906820e+10    8.101290e-10    1.048199e-11    6.559070e-10    5.960440e-11    9.200000e-01    7.040272e-01    2.163030e-01
    6.362461e+00    3.065415e+01    1.568855e+01    1.950956e+10    8.142925e-10    1.056786e-11    6.611450e-10    5.997120e-11    9.300000e-01    7.040272e-01    2.227159e-01
    6.136895e+00    3.049867e+01    1.670014e+01    1.993621e+10    8.181750e-10    1.064805e-11    6.660355e-10    6.031125e-11    9.400000e-01    7.040272e-01    2.290987e-01
    5.923461e+00    3.034173e+01    1.773800e+01    2.034872e+10    8.217945e-10    1.072291e-11    6.706005e-10    6.062640e-11    9.500000e-01    7.040272e-01    2.354486e-01
    5.721414e+00    3.018360e+01    1.880127e+01    2.074761e+10    8.251685e-10    1.079279e-11    6.748620e-10    6.091865e-11    9.600000e-01    7.040272e-01    2.417635e-01
    5.530047e+00    3.002455e+01    1.988912e+01    2.113343e+10    8.283135e-10    1.085801e-11    6.788405e-10    6.118970e-11    9.700000e-01    7.040272e-01    2.480416e-01
    5.348692e+00    2.986481e+01    2.100076e+01    2.150671e+10    8.312445e-10    1.091890e-11    6.825560e-10    6.144120e-11    9.800000e-01    7.040272e-01    2.542814e-01
    5.176724e+00    2.970459e+01    2.213540e+01    2.186797e+10    8.339770e-10    1.097574e-11    6.860270e-10    6.167470e-11    9.900000e-01    7.040272e-01    2.604818e-01
    5.013555e+00    2.954409e+01    2.329228e+01    2.221771e+10    8.365245e-10    1.102882e-11    6.892705e-10    6.189160e-11    1.000000e+00    7.040272e-01    2.666420e-01
    4.858629e+00    2.938345e+01    2.447070e+01    2.255640e+10    8.389005e-10    1.107841e-11    6.923030e-10    6.209335e-11    1.010000e+00    7.040272e-01    2.727614e-01
    4.711432e+00    2.922282e+01    2.566993e+01    2.288449e+10    8.411175e-10    1.112476e-11    6.951405e-10    6.228110e-11    1.020000e+00    7.040272e-01    2.788397e-01
    4.571482e+00    2.906234e+01    2.688932e+01    2.320242e+10    8.431865e-10    1.116809e-11    6.977975e-10    6.245600e-11    1.030000e+00    7.040272e-01    2.848765e-01
    4.438330e+00    2.890210e+01    2.812821e+01    2.351059e+10    8.451195e-10    1.120864e-11    7.002865e-10    6.261915e-11    1.040000e+00    7.040272e-01    2.908719e-01
    4.311552e+00    2.874220e+01    2.938596e+01    2.380940e+10    8.469255e-10    1.124659e-11    7.026210e-10    6.277150e-11    1.050000e+00    7.040272e-01    2.968259e-01
    4.190761e+00    2.858273e+01    3.066198e+01    2.409921e+10    8.486145e-10    1.128214e-11    7.048120e-10    6.291395e-11    1.060000e+00    7.040272e-01    3.027386e-01
    4.075589e+00    2.842375e+01    3.195571e+01    2.438038e+10    8.501950e-10    1.131546e-11    7.068700e-10    6.304730e-11    1.070000e+00    7.040272e-01    3.086105e-01
    3.965697e+00    2.826532e+01    3.326657e+01    2.465322e+10    8.516755e-10    1.134671e-11    7.088060e-10    6.317235e-11    1.080000e+00    7.040272e-01    3.144418e-01
    3.860770e+00    2.810749e+01    3.459403e+01    2.491805e+10    8.530630e-10    1.137604e-11    7.106285e-10    6.328980e-11    1.090000e+00    7.040272e-01    3.202329e-01
    3.760512e+00    2.795031e+01    3.593759e+01    2.517520e+10    8.543645e-10    1.140360e-11    7.123460e-10    6.340020e-11    1.100000e+00    7.040272e-01    3.259843e-01
    3.664648e+00    2.779382e+01    3.729675e+01    2.542491e+10    8.555865e-10    1.142951e-11    7.139665e-10    6.350420e-11    1.110000e+00    7.040272e-01    3.316966e-01
    3.572924e+00    2.763803e+01    3.867102e+01    2.566745e+10    8.567355e-10    1.145389e-11    7.154975e-10    6.360230e-11    1.120000e+00    7.040272e-01    3.373703e-01
    3.485099e+00    2.748297e+01    4.005996e+01    2.590310e+10    8.578160e-10    1.147684e-11    7.169455e-10    6.369500e-11    1.130000e+00    7.040272e-01    3.430060e-01
    3.400954e+00    2.732868e+01    4.146314e+01    2.613208e+10    8.588335e-10    1.149848e-11    7.183165e-10    6.378275e-11    1.140000e+00    7.040272e-01    3.486043e-01
    3.320281e+00    2.717517e+01    4.288011e+01    2.635464e+10    8.597925e-10    1.151887e-11    7.196165e-10    6.386590e-11    1.150000e+00    7.040272e-01    3.541658e-01
    3.242885e+00    2.702243e+01    4.431048e+01    2.657098e+10    8.606975e-10    1.153814e-11    7.208505e-10    6.394490e-11    1.160000e+00    7.040272e-01    3.596912e-01
    3.168590e+00    2.687050e+01    4.575386e+01    2.678133e+10    8.615525e-10    1.155632e-11    7.220230e-10    6.402000e-11    1.170000e+00    7.040272e-01    3.651811e-01
    3.097223e+00    2.671934e+01    4.720986e+01    2.698587e+10    8.623605e-10    1.157352e-11    7.231390e-10    6.409160e-11    1.180000e+00    7.040272e-01    3.706362e-01
    3.028630e+00    2.656901e+01    4.867812e+01    2.718479e+10    8.631260e-10    1.158979e-11    7.242020e-10    6.415985e-11    1.190000e+00    7.040272e-01    3.760571e-01
    2.962662e+00    2.641949e+01    5.015830e+01    2.737828e+10    8.638510e-10    1.160519e-11    7.252165e-10    6.422515e-11    1.200000e+00    7.040272e-01    3.814446e-01
    2.899183e+00    2.627076e+01    5.165005e+01    2.756653e+10    8.645385e-10    1.161978e-11    7.261850e-10    6.428760e-11    1.210000e+00    7.040272e-01    3.867991e-01
    2.838063e+00    2.612284e+01    5.315305e+01    2.774969e+10    8.651915e-10    1.163360e-11    7.271115e-10    6.434750e-11    1.220000e+00    7.040272e-01    3.921215e-01
    2.779181e+00    2.597574e+01    5.466700e+01    2.792792e+10    8.658120e-10    1.164671e-11    7.279985e-10    6.440500e-11    1.230000e+00    7.040272e-01    3.974124e-01
    2.722427e+00    2.582943e+01    5.619155e+01    2.810137e+10    8.664030e-10    1.165914e-11    7.288485e-10    6.446030e-11    1.240000e+00    7.040272e-01    4.026723e-01
    2.667692e+00    2.568394e+01    5.772645e+01    2.827020e+10    8.669655e-10    1.167095e-11    7.296640e-10    6.451355e-11    1.250000e+00    7.040272e-01    4.079020e-01
    2.614880e+00    2.553920e+01    5.927135e+01    2.843455e+10    8.675015e-10    1.168216e-11    7.304475e-10    6.456485e-11    1.260000e+00    7.040272e-01    4.131020e-01
    2.563892e+00    2.539528e+01    6.082610e+01    2.859456e+10    8.680135e-10    1.169280e-11    7.312015e-10    6.461445e-11    1.270000e+00    7.040272e-01    4.182730e-01
    2.514646e+00    2.525214e+01    6.239030e+01    2.875034e+10    8.685025e-10    1.170291e-11    7.319270e-10    6.466235e-11    1.280000e+00    7.040272e-01    4.234156e-01
    2.467055e+00    2.510977e+01    6.396380e+01    2.890203e+10    8.689700e-10    1.171252e-11    7.326260e-10    6.470875e-11    1.290000e+00    7.040272e-01    4.285303e-01
    2.421045e+00    2.496815e+01    6.554625e+01    2.904976e+10    8.694175e-10    1.172165e-11    7.333010e-10    6.475370e-11    1.300000e+00    7.040272e-01    4.336178e-01
    2.376541e+00    2.482731e+01    6.713750e+01    2.919363e+10    8.698465e-10    1.173032e-11    7.339520e-10    6.479730e-11    1.310000e+00    7.040272e-01    4.386787e-01
    2.333474e+00    2.468720e+01    6.873730e+01    2.933376e+10    8.702575e-10    1.173855e-11    7.345820e-10    6.483965e-11    1.320000e+00    7.040272e-01    4.437134e-01
    2.291779e+00    2.454784e+01    7.034540e+01    2.947028e+10    8.706515e-10    1.174637e-11    7.351910e-10    6.488080e-11    1.330000e+00    7.040272e-01    4.487226e-01
    2.251397e+00    2.440922e+01    7.196155e+01    2.960324e+10    8.710305e-10    1.175379e-11    7.357805e-10    6.492085e-11    1.340000e+00    7.040272e-01    4.537068e-01
    2.212267e+00    2.427134e+01    7.358560e+01    2.973279e+10    8.713945e-10    1.176083e-11    7.363520e-10    6.495990e-11    1.350000e+00    7.040272e-01    4.586665e-01
    2.174337e+00    2.413415e+01    7.521730e+01    2.985902e+10    8.717445e-10    1.176750e-11    7.369060e-10    6.499795e-11    1.360000e+00    7.040272e-01    4.636022e-01
    2.137554e+00    2.399768e+01    7.685645e+01    2.998200e+10    8.720815e-10    1.177382e-11    7.374440e-10    6.503505e-11    1.370000e+00    7.040272e-01    4.685145e-01
    2.101868e+00    2.386191e+01    7.850295e+01    3.010183e+10    8.724060e-10    1.177980e-11    7.379665e-10    6.507130e-11    1.380000e+00    7.040272e-01    4.734039e-01
    2.067237e+00    2.372683e+01    8.015645e+01    3.021861e+10    8.727190e-10    1.178544e-11    7.384745e-10    6.510675e-11    1.390000e+00    7.040272e-01    4.782707e-01
    2.033613e+00    2.359245e+01    8.181690e+01    3.033242e+10    8.730205e-10    1.179077e-11    7.389685e-10    6.514140e-11    1.400000e+00    7.040272e-01    4.831156e-01
    2.000956e+00    2.345872e+01    8.348410e+01    3.044334e+10    8.733115e-10    1.179579e-11    7.394490e-10    6.517535e-11    1.410000e+00    7.040272e-01    4.879389e-01
