# GF180MCU-D nfet_03v3 gm/ID Processed Lookup Table
# Corner: sf
# Temperature: 25C
# W = 2.0 um
# L = 0.5 um (500 nm)
# Columns: gm/id [1/V]  gm/gds [V/V]  id/W [A/m]  ft [Hz]  Cgg/W [F/m]  Cgd/W [F/m]  Cgs/W [F/m]  Cdb/W [F/m]  vgs [V]  vth [V]  vdsat [V]
# vdsat = BSIM saturation voltage (|VDS|_sat, positive); use for headroom / saturation / cascode-bias calculations
#           gm/id          gm/gds            id/W              ft           Cgg/W           Cgd/W           Cgs/W           Cdb/W             vgs             vth           vdsat
    2.730122e+01    1.773246e+02    1.440490e-04    9.790623e+05    6.392960e-10    6.738535e-15    4.316723e-12    1.597821e-12    4.400000e-01    7.842515e-01    4.878082e-02
    2.729705e+01    1.771103e+02    1.892676e-04    1.289242e+06    6.377895e-10    7.657085e-15    5.390050e-12    1.814183e-12    4.500000e-01    7.842515e-01    4.878499e-02
    2.727830e+01    1.768705e+02    2.486518e-04    1.696232e+06    6.364200e-10    8.699670e-15    6.619645e-12    2.059541e-12    4.600000e-01    7.842515e-01    4.879045e-02
    2.724639e+01    1.766020e+02    3.265854e-04    2.229532e+06    6.352025e-10    9.884070e-15    8.027605e-12    2.337875e-12    4.700000e-01    7.842515e-01    4.879763e-02
    2.720213e+01    1.763016e+02    4.287819e-04    2.927276e+06    6.341555e-10    1.123084e-14    9.639455e-12    2.653724e-12    4.800000e-01    7.842515e-01    4.880703e-02
    2.714590e+01    1.759660e+02    5.626750e-04    3.838594e+06    6.333005e-10    1.276372e-14    1.148463e-11    3.012261e-12    4.900000e-01    7.842515e-01    4.881934e-02
    2.707767e+01    1.755917e+02    7.379190e-04    5.026544e+06    6.326605e-10    1.451002e-14    1.359698e-11    3.419366e-12    5.000000e-01    7.842515e-01    4.883545e-02
    2.699709e+01    1.751754e+02    9.670230e-04    6.571661e+06    6.322645e-10    1.650108e-14    1.601527e-11    3.881699e-12    5.100000e-01    7.842515e-01    4.885650e-02
    2.690360e+01    1.747142e+02    1.266156e-03    8.576342e+06    6.321435e-10    1.877266e-14    1.878372e-11    4.406776e-12    5.200000e-01    7.842515e-01    4.888395e-02
    2.679643e+01    1.742054e+02    1.656160e-03    1.116998e+07    6.323345e-10    2.136544e-14    2.195251e-11    5.003045e-12    5.300000e-01    7.842515e-01    4.891971e-02
    2.667468e+01    1.736474e+02    2.163816e-03    1.451510e+07    6.328775e-10    2.432537e-14    2.557832e-11    5.679965e-12    5.400000e-01    7.842515e-01    4.896620e-02
    2.653742e+01    1.730399e+02    2.823426e-03    1.881437e+07    6.338195e-10    2.770417e-14    2.972479e-11    6.448050e-12    5.500000e-01    7.842515e-01    4.902648e-02
    2.638367e+01    1.723839e+02    3.678755e-03    2.431854e+07    6.352120e-10    3.155965e-14    3.446300e-11    7.318960e-12    5.600000e-01    7.842515e-01    4.910448e-02
    2.621249e+01    1.716831e+02    4.785420e-03    3.133523e+07    6.371115e-10    3.595606e-14    3.987184e-11    8.305510e-12    5.700000e-01    7.842515e-01    4.920510e-02
    2.602311e+01    1.709439e+02    6.213790e-03    4.023824e+07    6.395830e-10    4.096433e-14    4.603825e-11    9.421715e-12    5.800000e-01    7.842515e-01    4.933446e-02
    2.581494e+01    1.701762e+02    8.052485e-03    5.147735e+07    6.426950e-10    4.666223e-14    5.305745e-11    1.068277e-11    5.900000e-01    7.842515e-01    4.950018e-02
    2.558761e+01    1.693944e+02    1.041257e-02    6.558784e+07    6.465235e-10    5.313430e-14    6.103280e-11    1.210503e-11    6.000000e-01    7.842515e-01    4.971157e-02
    2.534108e+01    1.686171e+02    1.343249e-02    8.319945e+07    6.511505e-10    6.047170e-14    7.007560e-11    1.370588e-11    6.100000e-01    7.842515e-01    4.997995e-02
    2.507562e+01    1.678683e+02    1.728396e-02    1.050443e+08    6.566630e-10    6.877160e-14    8.030415e-11    1.550361e-11    6.200000e-01    7.842515e-01    5.031887e-02
    2.479173e+01    1.671765e+02    2.217875e-02    1.319623e+08    6.631535e-10    7.813625e-14    9.184310e-11    1.751720e-11    6.300000e-01    7.842515e-01    5.074434e-02
    2.449018e+01    1.665744e+02    2.837652e-02    1.649043e+08    6.707170e-10    8.867185e-14    1.048213e-10    1.976594e-11    6.400000e-01    7.842515e-01    5.127497e-02
    2.417170e+01    1.660970e+02    3.619382e-02    2.049289e+08    6.794515e-10    1.004864e-13    1.193699e-10    2.226906e-11    6.500000e-01    7.842515e-01    5.193200e-02
    2.383685e+01    1.657800e+02    4.601410e-02    2.531947e+08    6.894540e-10    1.136872e-13    1.356189e-10    2.504514e-11    6.600000e-01    7.842515e-01    5.273912e-02
    2.348577e+01    1.656561e+02    5.829860e-02    3.109406e+08    7.008185e-10    1.283780e-13    1.536935e-10    2.811148e-11    6.700000e-01    7.842515e-01    5.372218e-02
    2.311797e+01    1.657520e+02    7.359770e-02    3.794543e+08    7.136325e-10    1.446546e-13    1.737094e-10    3.148326e-11    6.800000e-01    7.842515e-01    5.490859e-02
    2.273207e+01    1.660846e+02    9.256240e-02    4.600218e+08    7.279730e-10    1.626005e-13    1.957669e-10    3.517267e-11    6.900000e-01    7.842515e-01    5.632654e-02
    2.232595e+01    1.666576e+02    1.159541e-01    5.538608e+08    7.439015e-10    1.822815e-13    2.199451e-10    3.918793e-11    7.000000e-01    7.842515e-01    5.800396e-02
    2.189683e+01    1.674595e+02    1.446520e-01    6.620316e+08    7.614600e-10    2.037404e-13    2.462946e-10    4.353225e-11    7.100000e-01    7.842515e-01    5.996735e-02
    2.144167e+01    1.684629e+02    1.796569e-01    7.853419e+08    7.806635e-10    2.269908e-13    2.748311e-10    4.820282e-11    7.200000e-01    7.842515e-01    6.224057e-02
    2.095777e+01    1.696256e+02    2.220880e-01    9.242454e+08    8.014990e-10    2.520120e-13    3.055287e-10    5.319000e-11    7.300000e-01    7.842515e-01    6.484363e-02
    2.044331e+01    1.708938e+02    2.731735e-01    1.078763e+09    8.239175e-10    2.787441e-13    3.383147e-10    5.847655e-11    7.400000e-01    7.842515e-01    6.779169e-02
    1.989782e+01    1.722058e+02    3.342336e-01    1.248433e+09    8.478335e-10    3.070846e-13    3.730647e-10    6.403735e-11    7.500000e-01    7.842515e-01    7.109437e-02
    1.932259e+01    1.734981e+02    4.066561e-01    1.432313e+09    8.731220e-10    3.368869e-13    4.096023e-10    6.983920e-11    7.600000e-01    7.842515e-01    7.475534e-02
    1.872065e+01    1.747094e+02    4.918660e-01    1.629028e+09    8.996205e-10    3.679612e-13    4.476989e-10    7.584160e-11    7.700000e-01    7.842515e-01    7.877232e-02
    1.809659e+01    1.757851e+02    5.912925e-01    1.836870e+09    9.271305e-10    4.000771e-13    4.870784e-10    8.199720e-11    7.800000e-01    7.842515e-01    8.313749e-02
    1.745621e+01    1.766799e+02    7.063330e-01    2.053923e+09    9.554225e-10    4.329703e-13    5.274240e-10    8.825370e-11    7.900000e-01    7.842515e-01    8.783808e-02
    1.680595e+01    1.773602e+02    8.383240e-01    2.278200e+09    9.842450e-10    4.663499e-13    5.683890e-10    9.455505e-11    8.000000e-01    7.842515e-01    9.285727e-02
    1.615244e+01    1.778036e+02    9.885090e-01    2.507770e+09    1.013331e-09    4.999095e-13    6.096075e-10    1.008440e-10    8.100000e-01    7.842515e-01    9.817509e-02
    1.550201e+01    1.779981e+02    1.158019e+00    2.740855e+09    1.042407e-09    5.333375e-13    6.507095e-10    1.070637e-10    8.200000e-01    7.842515e-01    1.037694e-01
    1.486039e+01    1.779412e+02    1.347854e+00    2.975904e+09    1.071210e-09    5.663290e-13    6.913325e-10    1.131601e-10    8.300000e-01    7.842515e-01    1.096168e-01
    1.423249e+01    1.776379e+02    1.558877e+00    3.211615e+09    1.099485e-09    5.985965e-13    7.311380e-10    1.190840e-10    8.400000e-01    7.842515e-01    1.156934e-01
    1.362228e+01    1.770990e+02    1.791806e+00    3.446949e+09    1.127006e-09    6.298805e-13    7.698175e-10    1.247919e-10    8.500000e-01    7.842515e-01    1.219753e-01
    1.303282e+01    1.763394e+02    2.047217e+00    3.681101e+09    1.153572e-09    6.599540e-13    8.071065e-10    1.302479e-10    8.600000e-01    7.842515e-01    1.284394e-01
    1.246629e+01    1.753764e+02    2.325553e+00    3.913475e+09    1.179020e-09    6.886305e-13    8.427860e-10    1.354236e-10    8.700000e-01    7.842515e-01    1.350636e-01
    1.192412e+01    1.742289e+02    2.627124e+00    4.143644e+09    1.203218e-09    7.157650e-13    8.766870e-10    1.402985e-10    8.800000e-01    7.842515e-01    1.418271e-01
    1.140707e+01    1.729165e+02    2.952123e+00    4.371308e+09    1.226076e-09    7.412535e-13    9.086905e-10    1.448602e-10    8.900000e-01    7.842515e-01    1.487103e-01
    1.091540e+01    1.714584e+02    3.300639e+00    4.596268e+09    1.247534e-09    7.650320e-13    9.387255e-10    1.491030e-10    9.000000e-01    7.842515e-01    1.556954e-01
    1.044893e+01    1.698736e+02    3.672664e+00    4.818393e+09    1.267567e-09    7.870735e-13    9.667625e-10    1.530276e-10    9.100000e-01    7.842515e-01    1.627660e-01
    1.000715e+01    1.681797e+02    4.068105e+00    5.037594e+09    1.286174e-09    8.073825e-13    9.928105e-10    1.566402e-10    9.200000e-01    7.842515e-01    1.699072e-01
    9.589350e+00    1.663934e+02    4.486803e+00    5.253814e+09    1.303382e-09    8.259895e-13    1.016910e-09    1.599510e-10    9.300000e-01    7.842515e-01    1.771055e-01
    9.194620e+00    1.645301e+02    4.928534e+00    5.467018e+09    1.319232e-09    8.429480e-13    1.039127e-09    1.629739e-10    9.400000e-01    7.842515e-01    1.843488e-01
    8.821962e+00    1.626039e+02    5.393025e+00    5.677174e+09    1.333784e-09    8.583260e-13    1.059546e-09    1.657247e-10    9.500000e-01    7.842515e-01    1.916265e-01
    8.470304e+00    1.606277e+02    5.879965e+00    5.884265e+09    1.347105e-09    8.722050e-13    1.078265e-09    1.682211e-10    9.600000e-01    7.842515e-01    1.989290e-01
    8.138546e+00    1.586129e+02    6.389010e+00    6.088273e+09    1.359272e-09    8.846730e-13    1.095391e-09    1.704816e-10    9.700000e-01    7.842515e-01    2.062477e-01
    7.825576e+00    1.565694e+02    6.919785e+00    6.289173e+09    1.370362e-09    8.958235e-13    1.111037e-09    1.725246e-10    9.800000e-01    7.842515e-01    2.135753e-01
    7.530320e+00    1.545067e+02    7.471900e+00    6.486966e+09    1.380458e-09    9.057490e-13    1.125314e-09    1.743687e-10    9.900000e-01    7.842515e-01    2.209052e-01
    7.251691e+00    1.524325e+02    8.044965e+00    6.681629e+09    1.389637e-09    9.145435e-13    1.138334e-09    1.760317e-10    1.000000e+00    7.842515e-01    2.282316e-01
    6.988680e+00    1.503538e+02    8.638555e+00    6.873159e+09    1.397977e-09    9.222960e-13    1.150204e-09    1.775306e-10    1.010000e+00    7.842515e-01    2.355496e-01
    6.740290e+00    1.482763e+02    9.252265e+00    7.061542e+09    1.405553e-09    9.290930e-13    1.161029e-09    1.788814e-10    1.020000e+00    7.842515e-01    2.428550e-01
    6.505605e+00    1.462056e+02    9.885675e+00    7.246790e+09    1.412435e-09    9.350155e-13    1.170905e-09    1.800990e-10    1.030000e+00    7.842515e-01    2.501439e-01
    6.283728e+00    1.441457e+02    1.053837e+01    7.428890e+09    1.418689e-09    9.401395e-13    1.179922e-09    1.811971e-10    1.040000e+00    7.842515e-01    2.574131e-01
    6.073826e+00    1.421005e+02    1.120995e+01    7.607852e+09    1.424374e-09    9.445345e-13    1.188165e-09    1.821884e-10    1.050000e+00    7.842515e-01    2.646600e-01
    5.875128e+00    1.400731e+02    1.189998e+01    7.783684e+09    1.429547e-09    9.482645e-13    1.195710e-09    1.830843e-10    1.060000e+00    7.842515e-01    2.718822e-01
    5.686892e+00    1.380660e+02    1.260809e+01    7.956402e+09    1.434260e-09    9.513885e-13    1.202629e-09    1.838951e-10    1.070000e+00    7.842515e-01    2.790777e-01
    5.508446e+00    1.360815e+02    1.333387e+01    8.126023e+09    1.438558e-09    9.539600e-13    1.208983e-09    1.846301e-10    1.080000e+00    7.842515e-01    2.862449e-01
    5.339140e+00    1.341210e+02    1.407694e+01    8.292558e+09    1.442484e-09    9.560260e-13    1.214832e-09    1.852978e-10    1.090000e+00    7.842515e-01    2.933824e-01
    5.178393e+00    1.321864e+02    1.483692e+01    8.456048e+09    1.446077e-09    9.576305e-13    1.220228e-09    1.859056e-10    1.100000e+00    7.842515e-01    3.004891e-01
    5.025643e+00    1.302783e+02    1.561344e+01    8.616504e+09    1.449371e-09    9.588110e-13    1.225217e-09    1.864603e-10    1.110000e+00    7.842515e-01    3.075640e-01
    4.880380e+00    1.283975e+02    1.640615e+01    8.773961e+09    1.452395e-09    9.596030e-13    1.229842e-09    1.869676e-10    1.120000e+00    7.842515e-01    3.146065e-01
    4.742130e+00    1.265449e+02    1.721469e+01    8.928463e+09    1.455178e-09    9.600365e-13    1.234140e-09    1.874329e-10    1.130000e+00    7.842515e-01    3.216159e-01
    4.610446e+00    1.247207e+02    1.803872e+01    9.080029e+09    1.457745e-09    9.601385e-13    1.238144e-09    1.878609e-10    1.140000e+00    7.842515e-01    3.285919e-01
    4.484922e+00    1.229252e+02    1.887791e+01    9.228712e+09    1.460118e-09    9.599330e-13    1.241885e-09    1.882557e-10    1.150000e+00    7.842515e-01    3.355340e-01
    4.365172e+00    1.211585e+02    1.973194e+01    9.374544e+09    1.462316e-09    9.594415e-13    1.245389e-09    1.886210e-10    1.160000e+00    7.842515e-01    3.424422e-01
    4.250847e+00    1.194204e+02    2.060047e+01    9.517570e+09    1.464356e-09    9.586820e-13    1.248681e-09    1.889599e-10    1.170000e+00    7.842515e-01    3.493163e-01
    4.141614e+00    1.177111e+02    2.148322e+01    9.657831e+09    1.466255e-09    9.576705e-13    1.251780e-09    1.892753e-10    1.180000e+00    7.842515e-01    3.561563e-01
    4.037170e+00    1.160302e+02    2.237988e+01    9.795374e+09    1.468026e-09    9.564220e-13    1.254707e-09    1.895698e-10    1.190000e+00    7.842515e-01    3.629623e-01
    3.937233e+00    1.143776e+02    2.329015e+01    9.930253e+09    1.469682e-09    9.549480e-13    1.257477e-09    1.898456e-10    1.200000e+00    7.842515e-01    3.697343e-01
    3.841536e+00    1.127528e+02    2.421375e+01    1.006249e+10    1.471233e-09    9.532590e-13    1.260105e-09    1.901045e-10    1.210000e+00    7.842515e-01    3.764725e-01
    3.749836e+00    1.111556e+02    2.515042e+01    1.019217e+10    1.472690e-09    9.513650e-13    1.262606e-09    1.903484e-10    1.220000e+00    7.842515e-01    3.831770e-01
    3.661906e+00    1.095856e+02    2.609987e+01    1.031930e+10    1.474060e-09    9.492730e-13    1.264989e-09    1.905788e-10    1.230000e+00    7.842515e-01    3.898483e-01
    3.577533e+00    1.080424e+02    2.706184e+01    1.044396e+10    1.475353e-09    9.469895e-13    1.267267e-09    1.907969e-10    1.240000e+00    7.842515e-01    3.964864e-01
    3.496517e+00    1.065254e+02    2.803607e+01    1.056617e+10    1.476574e-09    9.445210e-13    1.269448e-09    1.910041e-10    1.250000e+00    7.842515e-01    4.030918e-01
    3.418679e+00    1.050343e+02    2.902233e+01    1.068601e+10    1.477730e-09    9.418710e-13    1.271540e-09    1.912013e-10    1.260000e+00    7.842515e-01    4.096647e-01
    3.343842e+00    1.035687e+02    3.002035e+01    1.080350e+10    1.478827e-09    9.390435e-13    1.273552e-09    1.913895e-10    1.270000e+00    7.842515e-01    4.162055e-01
    3.271846e+00    1.021279e+02    3.102991e+01    1.091869e+10    1.479869e-09    9.360415e-13    1.275489e-09    1.915694e-10    1.280000e+00    7.842515e-01    4.227145e-01
    3.202547e+00    1.007117e+02    3.205078e+01    1.103164e+10    1.480860e-09    9.328675e-13    1.277358e-09    1.917419e-10    1.290000e+00    7.842515e-01    4.291922e-01
    3.135797e+00    9.931940e+01    3.308272e+01    1.114239e+10    1.481805e-09    9.295230e-13    1.279163e-09    1.919076e-10    1.300000e+00    7.842515e-01    4.356389e-01
    3.071472e+00    9.795063e+01    3.412552e+01    1.125098e+10    1.482708e-09    9.260090e-13    1.280910e-09    1.920670e-10    1.310000e+00    7.842515e-01    4.420549e-01
    3.009443e+00    9.660484e+01    3.517896e+01    1.135746e+10    1.483570e-09    9.223260e-13    1.282602e-09    1.922207e-10    1.320000e+00    7.842515e-01    4.484408e-01
    2.949600e+00    9.528168e+01    3.624283e+01    1.146187e+10    1.484396e-09    9.184740e-13    1.284244e-09    1.923691e-10    1.330000e+00    7.842515e-01    4.547969e-01
    2.891833e+00    9.398055e+01    3.731692e+01    1.156426e+10    1.485188e-09    9.144525e-13    1.285840e-09    1.925126e-10    1.340000e+00    7.842515e-01    4.611236e-01
    2.836041e+00    9.270109e+01    3.840105e+01    1.166466e+10    1.485948e-09    9.102610e-13    1.287391e-09    1.926515e-10    1.350000e+00    7.842515e-01    4.674213e-01
    2.782131e+00    9.144282e+01    3.949500e+01    1.176313e+10    1.486678e-09    9.058980e-13    1.288901e-09    1.927863e-10    1.360000e+00    7.842515e-01    4.736905e-01
    2.730011e+00    9.020521e+01    4.059859e+01    1.185970e+10    1.487379e-09    9.013625e-13    1.290373e-09    1.929172e-10    1.370000e+00    7.842515e-01    4.799315e-01
    2.679598e+00    8.898790e+01    4.171163e+01    1.195440e+10    1.488055e-09    8.966520e-13    1.291809e-09    1.930444e-10    1.380000e+00    7.842515e-01    4.861448e-01
    2.630815e+00    8.779043e+01    4.283394e+01    1.204730e+10    1.488705e-09    8.917650e-13    1.293210e-09    1.931683e-10    1.390000e+00    7.842515e-01    4.923308e-01
    2.583585e+00    8.661235e+01    4.396533e+01    1.213839e+10    1.489334e-09    8.866985e-13    1.294579e-09    1.932889e-10    1.400000e+00    7.842515e-01    4.984899e-01
    2.537840e+00    8.545331e+01    4.510564e+01    1.222776e+10    1.489939e-09    8.814505e-13    1.295919e-09    1.934065e-10    1.410000e+00    7.842515e-01    5.046226e-01
    2.493512e+00    8.431285e+01    4.625470e+01    1.231540e+10    1.490524e-09    8.760180e-13    1.297229e-09    1.935214e-10    1.420000e+00    7.842515e-01    5.107291e-01
    2.450541e+00    8.319059e+01    4.741232e+01    1.240137e+10    1.491089e-09    8.703970e-13    1.298511e-09    1.936335e-10    1.430000e+00    7.842515e-01    5.168100e-01
    2.408867e+00    8.208614e+01    4.857836e+01    1.248570e+10    1.491636e-09    8.645845e-13    1.299768e-09    1.937431e-10    1.440000e+00    7.842515e-01    5.228656e-01
    2.368434e+00    8.099909e+01    4.975264e+01    1.256843e+10    1.492164e-09    8.585770e-13    1.300999e-09    1.938504e-10    1.450000e+00    7.842515e-01    5.288963e-01
    2.329191e+00    7.992912e+01    5.093500e+01    1.264958e+10    1.492676e-09    8.523705e-13    1.302207e-09    1.939554e-10    1.460000e+00    7.842515e-01    5.349025e-01
    2.291085e+00    7.887583e+01    5.212535e+01    1.272919e+10    1.493172e-09    8.459605e-13    1.303393e-09    1.940582e-10    1.470000e+00    7.842515e-01    5.408846e-01
    2.254073e+00    7.783888e+01    5.332345e+01    1.280728e+10    1.493652e-09    8.393430e-13    1.304556e-09    1.941589e-10    1.480000e+00    7.842515e-01    5.468430e-01
    2.218108e+00    7.681791e+01    5.452920e+01    1.288390e+10    1.494117e-09    8.325130e-13    1.305699e-09    1.942577e-10    1.490000e+00    7.842515e-01    5.527780e-01
    2.183148e+00    7.581262e+01    5.574245e+01    1.295906e+10    1.494568e-09    8.254660e-13    1.306822e-09    1.943547e-10    1.500000e+00    7.842515e-01    5.586901e-01
    2.149156e+00    7.482265e+01    5.696300e+01    1.303281e+10    1.495006e-09    8.181970e-13    1.307926e-09    1.944498e-10    1.510000e+00    7.842515e-01    5.645796e-01
    2.116087e+00    7.384770e+01    5.819085e+01    1.310515e+10    1.495431e-09    8.107000e-13    1.309011e-09    1.945433e-10    1.520000e+00    7.842515e-01    5.704468e-01
