# GF180MCU-D nfet_03v3 gm/ID Processed Lookup Table
# Corner: ff
# Temperature: 25C
# W = 2.0 um
# L = 2 um (2000 nm)
# Columns: gm/id [1/V]  gm/gds [V/V]  id/W [A/m]  ft [Hz]  Cgg/W [F/m]  Cgd/W [F/m]  Cgs/W [F/m]  Cdb/W [F/m]  vgs [V]  vth [V]  vdsat [V]
# vdsat = BSIM saturation voltage (|VDS|_sat, positive); use for headroom / saturation / cascode-bias calculations
#           gm/id          gm/gds            id/W              ft           Cgg/W           Cgd/W           Cgs/W           Cdb/W             vgs             vth           vdsat
    2.755237e+01    4.897240e+02    8.335760e-05    1.412498e+05    2.587835e-09    6.469510e-16    5.618055e-11    1.320593e-11    2.600000e-01    5.615220e-01    4.003709e-02
    2.754524e+01    4.885266e+02    1.097999e-04    1.861809e+05    2.585433e-09    7.388300e-16    6.587955e-11    1.501049e-11    2.700000e-01    5.615220e-01    4.004774e-02
    2.751205e+01    4.871925e+02    1.446004e-04    2.450161e+05    2.584151e-09    8.436350e-16    7.700075e-11    1.706285e-11    2.800000e-01    5.615220e-01    4.006173e-02
    2.745558e+01    4.857117e+02    1.903451e-04    3.218675e+05    2.584136e-09    9.632015e-16    8.975175e-11    1.939722e-11    2.900000e-01    5.615220e-01    4.008012e-02
    2.737761e+01    4.840761e+02    2.503926e-04    4.219714e+05    2.585557e-09    1.099624e-15    1.043683e-10    2.205208e-11    3.000000e-01    5.615220e-01    4.010423e-02
    2.727920e+01    4.822811e+02    3.290925e-04    5.519556e+05    2.588604e-09    1.255295e-15    1.211171e-10    2.507059e-11    3.100000e-01    5.615220e-01    4.013580e-02
    2.716084e+01    4.803259e+02    4.320595e-04    7.201483e+05    2.593492e-09    1.432941e-15    1.402975e-10    2.850079e-11    3.200000e-01    5.615220e-01    4.017703e-02
    2.702265e+01    4.782167e+02    5.665160e-04    9.369355e+05    2.600463e-09    1.635662e-15    1.622445e-10    3.239595e-11    3.300000e-01    5.615220e-01    4.023075e-02
    2.686457e+01    4.759679e+02    7.417155e-04    1.215159e+06    2.609782e-09    1.866978e-15    1.873294e-10    3.681470e-11    3.400000e-01    5.615220e-01    4.030056e-02
    2.668641e+01    4.736049e+02    9.694660e-04    1.570552e+06    2.621746e-09    2.130871e-15    2.159618e-10    4.182114e-11    3.500000e-01    5.615220e-01    4.039098e-02
    2.648809e+01    4.711668e+02    1.264766e-03    2.022197e+06    2.636680e-09    2.431838e-15    2.485901e-10    4.748480e-11    3.600000e-01    5.615220e-01    4.050767e-02
    2.626967e+01    4.687078e+02    1.646579e-03    2.593007e+06    2.654934e-09    2.774936e-15    2.857006e-10    5.388035e-11    3.700000e-01    5.615220e-01    4.065767e-02
    2.603149e+01    4.663019e+02    2.138768e-03    3.310184e+06    2.676890e-09    3.165835e-15    3.278157e-10    6.108725e-11    3.800000e-01    5.615220e-01    4.084957e-02
    2.577416e+01    4.640413e+02    2.771202e-03    4.205664e+06    2.702952e-09    3.610867e-15    3.754910e-10    6.918885e-11    3.900000e-01    5.615220e-01    4.109382e-02
    2.549867e+01    4.620396e+02    3.581090e-03    5.316515e+06    2.733543e-09    4.117066e-15    4.293084e-10    7.827130e-11    4.000000e-01    5.615220e-01    4.140288e-02
    2.520619e+01    4.604281e+02    4.614541e-03    6.685231e+06    2.769105e-09    4.692218e-15    4.898686e-10    8.842200e-11    4.100000e-01    5.615220e-01    4.179142e-02
    2.489797e+01    4.593516e+02    5.928390e-03    8.359910e+06    2.810083e-09    5.344880e-15    5.577785e-10    9.972730e-11    4.200000e-01    5.615220e-01    4.227640e-02
    2.457505e+01    4.589616e+02    7.592315e-03    1.039420e+07    2.856918e-09    6.084410e-15    6.336365e-10    1.122702e-10    4.300000e-01    5.615220e-01    4.287706e-02
    2.423807e+01    4.594066e+02    9.691220e-03    1.284692e+07    2.910031e-09    6.920965e-15    7.180115e-10    1.261268e-10    4.400000e-01    5.615220e-01    4.361466e-02
    2.388684e+01    4.608198e+02    1.232789e-02    1.578115e+07    2.969811e-09    7.865485e-15    8.114215e-10    1.413627e-10    4.500000e-01    5.615220e-01    4.451219e-02
    2.352018e+01    4.633027e+02    1.562573e-02    1.926263e+07    3.036585e-09    8.929655e-15    9.143035e-10    1.580284e-10    4.600000e-01    5.615220e-01    4.559375e-02
    2.313583e+01    4.669154e+02    1.973159e-02    2.335726e+07    3.110609e-09    1.012582e-14    1.026986e-09    1.761550e-10    4.700000e-01    5.615220e-01    4.688382e-02
    2.273057e+01    4.716630e+02    2.481821e-02    2.812767e+07    3.192030e-09    1.146691e-14    1.149654e-09    1.957497e-10    4.800000e-01    5.615220e-01    4.840630e-02
    2.230064e+01    4.774900e+02    3.108613e-02    3.362901e+07    3.280877e-09    1.296628e-14    1.282318e-09    2.167908e-10    4.900000e-01    5.615220e-01    5.018355e-02
    2.184241e+01    4.842817e+02    3.876459e-02    3.990444e+07    3.377028e-09    1.463757e-14    1.424785e-09    2.392241e-10    5.000000e-01    5.615220e-01    5.223542e-02
    2.135295e+01    4.918677e+02    4.811124e-02    4.698085e+07    3.480196e-09    1.649447e-14    1.576636e-09    2.629603e-10    5.100000e-01    5.615220e-01    5.457831e-02
    2.083080e+01    5.000371e+02    5.941025e-02    5.486591e+07    3.589920e-09    1.855053e-14    1.737208e-09    2.878737e-10    5.200000e-01    5.615220e-01    5.722451e-02
    2.027632e+01    5.085534e+02    7.296890e-02    6.354675e+07    3.705560e-09    2.081891e-14    1.905591e-09    3.138027e-10    5.300000e-01    5.615220e-01    6.018180e-02
    1.969191e+01    5.171725e+02    8.911270e-02    7.299091e+07    3.826298e-09    2.331214e-14    2.080642e-09    3.405532e-10    5.400000e-01    5.615220e-01    6.345329e-02
    1.908177e+01    5.256603e+02    1.081796e-01    8.314938e+07    3.951165e-09    2.604185e-14    2.261003e-09    3.679029e-10    5.500000e-01    5.615220e-01    6.703758e-02
    1.845154e+01    5.338058e+02    1.305136e-01    9.396105e+07    4.079063e-09    2.901863e-14    2.445150e-09    3.956086e-10    5.600000e-01    5.615220e-01    7.092919e-02
    1.780776e+01    5.414303e+02    1.564576e-01    1.053580e+08    4.208803e-09    3.225176e-14    2.631435e-09    4.234150e-10    5.700000e-01    5.615220e-01    7.511906e-02
    1.715729e+01    5.483926e+02    1.863480e-01    1.172705e+08    4.339150e-09    3.574916e-14    2.818158e-09    4.510640e-10    5.800000e-01    5.615220e-01    7.959531e-02
    1.650676e+01    5.545893e+02    2.205084e-01    1.296312e+08    4.468869e-09    3.951723e-14    3.003618e-09    4.783046e-10    5.900000e-01    5.615220e-01    8.434386e-02
    1.586225e+01    5.599532e+02    2.592455e-01    1.423783e+08    4.596768e-09    4.356087e-14    3.186189e-09    5.049020e-10    6.000000e-01    5.615220e-01    8.934913e-02
    1.522903e+01    5.644473e+02    3.028454e-01    1.554572e+08    4.721747e-09    4.788355e-14    3.364370e-09    5.306455e-10    6.100000e-01    5.615220e-01    9.459464e-02
    1.461140e+01    5.680626e+02    3.515710e-01    1.688209e+08    4.842825e-09    5.248730e-14    3.536833e-09    5.553550e-10    6.200000e-01    5.615220e-01    1.000635e-01
    1.401273e+01    5.708099e+02    4.056606e-01    1.824300e+08    4.959174e-09    5.737295e-14    3.702459e-09    5.788835e-10    6.300000e-01    5.615220e-01    1.057387e-01
    1.343548e+01    5.727170e+02    4.653270e-01    1.962514e+08    5.070125e-09    6.254015e-14    3.860358e-09    6.011210e-10    6.400000e-01    5.615220e-01    1.116039e-01
    1.288133e+01    5.738225e+02    5.307575e-01    2.102576e+08    5.175175e-09    6.798780e-14    4.009869e-09    6.219930e-10    6.500000e-01    5.615220e-01    1.176429e-01
    1.235125e+01    5.741740e+02    6.021155e-01    2.244252e+08    5.273990e-09    7.371395e-14    4.150560e-09    6.414585e-10    6.600000e-01    5.615220e-01    1.238404e-01
    1.184575e+01    5.738256e+02    6.795385e-01    2.387342e+08    5.366390e-09    7.971620e-14    4.282212e-09    6.595065e-10    6.700000e-01    5.615220e-01    1.301821e-01
    1.136480e+01    5.728318e+02    7.631440e-01    2.531668e+08    5.452325e-09    8.599180e-14    4.404787e-09    6.761530e-10    6.800000e-01    5.615220e-01    1.366543e-01
    1.090809e+01    5.712511e+02    8.530275e-01    2.677073e+08    5.531865e-09    9.253785e-14    4.518411e-09    6.914360e-10    6.900000e-01    5.615220e-01    1.432444e-01
    1.047503e+01    5.691389e+02    9.492655e-01    2.823409e+08    5.605175e-09    9.935145e-14    4.623337e-09    7.054090e-10    7.000000e-01    5.615220e-01    1.499409e-01
    1.006487e+01    5.665518e+02    1.051917e+00    2.970538e+08    5.672500e-09    1.064298e-13    4.719920e-09    7.181405e-10    7.100000e-01    5.615220e-01    1.567328e-01
    9.676721e+00    5.635424e+02    1.161026e+00    3.118336e+08    5.734130e-09    1.137704e-13    4.808587e-09    7.297050e-10    7.200000e-01    5.615220e-01    1.636104e-01
    9.309628e+00    5.601614e+02    1.276624e+00    3.266677e+08    5.790410e-09    1.213708e-13    4.889816e-09    7.401845e-10    7.300000e-01    5.615220e-01    1.705647e-01
    8.962565e+00    5.564558e+02    1.398729e+00    3.415450e+08    5.841685e-09    1.292293e-13    4.964113e-09    7.496615e-10    7.400000e-01    5.615220e-01    1.775875e-01
    8.634504e+00    5.524690e+02    1.527350e+00    3.564547e+08    5.888325e-09    1.373445e-13    5.031995e-09    7.582190e-10    7.500000e-01    5.615220e-01    1.846715e-01
    8.324422e+00    5.482415e+02    1.662486e+00    3.713869e+08    5.930695e-09    1.457152e-13    5.093975e-09    7.659385e-10    7.600000e-01    5.615220e-01    1.918099e-01
    8.031290e+00    5.438092e+02    1.804131e+00    3.863320e+08    5.969155e-09    1.543411e-13    5.150555e-09    7.728965e-10    7.700000e-01    5.615220e-01    1.989968e-01
    7.754128e+00    5.392054e+02    1.952271e+00    4.012813e+08    6.004050e-09    1.632220e-13    5.202220e-09    7.791680e-10    7.800000e-01    5.615220e-01    2.062267e-01
    7.491982e+00    5.344594e+02    2.106887e+00    4.162269e+08    6.035705e-09    1.723583e-13    5.249420e-09    7.848200e-10    7.900000e-01    5.615220e-01    2.134948e-01
    7.243930e+00    5.295973e+02    2.267958e+00    4.311615e+08    6.064420e-09    1.817510e-13    5.292580e-09    7.899175e-10    8.000000e-01    5.615220e-01    2.207968e-01
    7.009105e+00    5.246424e+02    2.435456e+00    4.460780e+08    6.090490e-09    1.914015e-13    5.332100e-09    7.945175e-10    8.100000e-01    5.615220e-01    2.281287e-01
    6.786679e+00    5.196150e+02    2.609355e+00    4.609701e+08    6.114175e-09    2.013115e-13    5.368335e-09    7.986740e-10    8.200000e-01    5.615220e-01    2.354872e-01
    6.575874e+00    5.145331e+02    2.789623e+00    4.758330e+08    6.135705e-09    2.114833e-13    5.401625e-09    8.024345e-10    8.300000e-01    5.615220e-01    2.428692e-01
    6.375951e+00    5.094121e+02    2.976228e+00    4.906607e+08    6.155310e-09    2.219196e-13    5.432270e-09    8.058425e-10    8.400000e-01    5.615220e-01    2.502718e-01
    6.186220e+00    5.042654e+02    3.169137e+00    5.054492e+08    6.173180e-09    2.326235e-13    5.460540e-09    8.089370e-10    8.500000e-01    5.615220e-01    2.576927e-01
    6.006037e+00    4.991049e+02    3.368315e+00    5.201939e+08    6.189500e-09    2.435985e-13    5.486680e-09    8.117530e-10    8.600000e-01    5.615220e-01    2.651297e-01
    5.834795e+00    4.939404e+02    3.573729e+00    5.348916e+08    6.204425e-09    2.548484e-13    5.510920e-09    8.143215e-10    8.700000e-01    5.615220e-01    2.725809e-01
    5.671931e+00    4.887806e+02    3.785343e+00    5.495390e+08    6.218100e-09    2.663774e-13    5.533450e-09    8.166700e-10    8.800000e-01    5.615220e-01    2.800446e-01
    5.516916e+00    4.836327e+02    4.003121e+00    5.641325e+08    6.230660e-09    2.781900e-13    5.554450e-09    8.188235e-10    8.900000e-01    5.615220e-01    2.875191e-01
    5.369259e+00    4.785025e+02    4.227028e+00    5.786698e+08    6.242215e-09    2.902912e-13    5.574075e-09    8.208030e-10    9.000000e-01    5.615220e-01    2.950033e-01
    5.228505e+00    4.733957e+02    4.457028e+00    5.931483e+08    6.252875e-09    3.026863e-13    5.592475e-09    8.226280e-10    9.100000e-01    5.615220e-01    3.024958e-01
    5.094226e+00    4.683159e+02    4.693087e+00    6.075667e+08    6.262720e-09    3.153805e-13    5.609770e-09    8.243160e-10    9.200000e-01    5.615220e-01    3.099957e-01
    4.966028e+00    4.632678e+02    4.935169e+00    6.219226e+08    6.271840e-09    3.283798e-13    5.626070e-09    8.258815e-10    9.300000e-01    5.615220e-01    3.175019e-01
    4.843540e+00    4.582534e+02    5.183240e+00    6.362140e+08    6.280310e-09    3.416904e-13    5.641475e-09    8.273380e-10    9.400000e-01    5.615220e-01    3.250137e-01
    4.726425e+00    4.532752e+02    5.437260e+00    6.504401e+08    6.288190e-09    3.553186e-13    5.656075e-09    8.286970e-10    9.500000e-01    5.615220e-01    3.325302e-01
    4.614359e+00    4.483357e+02    5.697200e+00    6.646000e+08    6.295535e-09    3.692712e-13    5.669950e-09    8.299690e-10    9.600000e-01    5.615220e-01    3.400509e-01
    4.507046e+00    4.434358e+02    5.963025e+00    6.786920e+08    6.302400e-09    3.835551e-13    5.683170e-09    8.311625e-10    9.700000e-01    5.615220e-01    3.475752e-01
    4.404207e+00    4.385773e+02    6.234705e+00    6.927155e+08    6.308830e-09    3.981776e-13    5.695790e-09    8.322870e-10    9.800000e-01    5.615220e-01    3.551025e-01
    4.305594e+00    4.337605e+02    6.512195e+00    7.066692e+08    6.314870e-09    4.131463e-13    5.707875e-09    8.333480e-10    9.900000e-01    5.615220e-01    3.626324e-01
    4.210960e+00    4.289864e+02    6.795470e+00    7.205534e+08    6.320545e-09    4.284690e-13    5.719465e-09    8.343525e-10    1.000000e+00    5.615220e-01    3.701645e-01
    4.120086e+00    4.242551e+02    7.084490e+00    7.343668e+08    6.325895e-09    4.441540e-13    5.730610e-09    8.353060e-10    1.010000e+00    5.615220e-01    3.776984e-01
    4.032762e+00    4.195677e+02    7.379230e+00    7.481089e+08    6.330950e-09    4.602095e-13    5.741345e-09    8.362135e-10    1.020000e+00    5.615220e-01    3.852339e-01
    3.948792e+00    4.149231e+02    7.679655e+00    7.617798e+08    6.335730e-09    4.766443e-13    5.751710e-09    8.370790e-10    1.030000e+00    5.615220e-01    3.927706e-01
    3.868001e+00    4.103219e+02    7.985725e+00    7.753789e+08    6.340260e-09    4.934674e-13    5.761725e-09    8.379060e-10    1.040000e+00    5.615220e-01    4.003083e-01
    3.790212e+00    4.057643e+02    8.297420e+00    7.889054e+08    6.344565e-09    5.106880e-13    5.771430e-09    8.386990e-10    1.050000e+00    5.615220e-01    4.078469e-01
    3.715275e+00    4.012494e+02    8.614695e+00    8.023600e+08    6.348655e-09    5.283160e-13    5.780840e-09    8.394595e-10    1.060000e+00    5.615220e-01    4.153860e-01
    3.643037e+00    3.967772e+02    8.937525e+00    8.157421e+08    6.352550e-09    5.463605e-13    5.789980e-09    8.401915e-10    1.070000e+00    5.615220e-01    4.229256e-01
    3.573360e+00    3.923471e+02    9.265880e+00    8.290523e+08    6.356260e-09    5.648330e-13    5.798875e-09    8.408965e-10    1.080000e+00    5.615220e-01    4.304656e-01
    3.506118e+00    3.879592e+02    9.599720e+00    8.422889e+08    6.359810e-09    5.837425e-13    5.807535e-09    8.415775e-10    1.090000e+00    5.615220e-01    4.380058e-01
    3.441185e+00    3.836124e+02    9.939025e+00    8.554533e+08    6.363200e-09    6.031010e-13    5.815980e-09    8.422355e-10    1.100000e+00    5.615220e-01    4.455461e-01
    3.378451e+00    3.793067e+02    1.028375e+01    8.685449e+08    6.366445e-09    6.229195e-13    5.824225e-09    8.428720e-10    1.110000e+00    5.615220e-01    4.530864e-01
    3.317807e+00    3.750414e+02    1.063387e+01    8.815636e+08    6.369555e-09    6.432095e-13    5.832280e-09    8.434895e-10    1.120000e+00    5.615220e-01    4.606267e-01
    3.259152e+00    3.708159e+02    1.098936e+01    8.945092e+08    6.372540e-09    6.639825e-13    5.840160e-09    8.440890e-10    1.130000e+00    5.615220e-01    4.681669e-01
    3.202396e+00    3.666298e+02    1.135019e+01    9.073823e+08    6.375405e-09    6.852510e-13    5.847875e-09    8.446715e-10    1.140000e+00    5.615220e-01    4.757070e-01
    3.147446e+00    3.624821e+02    1.171631e+01    9.201829e+08    6.378155e-09    7.070275e-13    5.855430e-09    8.452380e-10    1.150000e+00    5.615220e-01    4.832469e-01
    3.094221e+00    3.583730e+02    1.208770e+01    9.329101e+08    6.380805e-09    7.293250e-13    5.862840e-09    8.457895e-10    1.160000e+00    5.615220e-01    4.907866e-01
    3.042641e+00    3.543013e+02    1.246434e+01    9.455653e+08    6.383350e-09    7.521570e-13    5.870110e-09    8.463275e-10    1.170000e+00    5.615220e-01    4.983261e-01
    2.992634e+00    3.502665e+02    1.284619e+01    9.581471e+08    6.385805e-09    7.755370e-13    5.877250e-09    8.468520e-10    1.180000e+00    5.615220e-01    5.058654e-01
    2.944129e+00    3.462683e+02    1.323320e+01    9.706564e+08    6.388170e-09    7.994795e-13    5.884265e-09    8.473640e-10    1.190000e+00    5.615220e-01    5.134044e-01
    2.897059e+00    3.423060e+02    1.362538e+01    9.830931e+08    6.390450e-09    8.239995e-13    5.891160e-09    8.478645e-10    1.200000e+00    5.615220e-01    5.209433e-01
    2.851365e+00    3.383789e+02    1.402266e+01    9.954571e+08    6.392650e-09    8.491110e-13    5.897940e-09    8.483540e-10    1.210000e+00    5.615220e-01    5.284819e-01
    2.806986e+00    3.344868e+02    1.442504e+01    1.007749e+09    6.394770e-09    8.748305e-13    5.904615e-09    8.488325e-10    1.220000e+00    5.615220e-01    5.360204e-01
    2.763866e+00    3.306288e+02    1.483248e+01    1.019968e+09    6.396820e-09    9.011735e-13    5.911185e-09    8.493015e-10    1.230000e+00    5.615220e-01    5.435586e-01
    2.721955e+00    3.268045e+02    1.524493e+01    1.032114e+09    6.398805e-09    9.281565e-13    5.917660e-09    8.497605e-10    1.240000e+00    5.615220e-01    5.510967e-01
    2.681201e+00    3.230134e+02    1.566239e+01    1.044189e+09    6.400715e-09    9.557965e-13    5.924035e-09    8.502105e-10    1.250000e+00    5.615220e-01    5.586347e-01
    2.641559e+00    3.192550e+02    1.608480e+01    1.056190e+09    6.402565e-09    9.841105e-13    5.930320e-09    8.506515e-10    1.260000e+00    5.615220e-01    5.661726e-01
    2.602982e+00    3.155287e+02    1.651216e+01    1.068119e+09    6.404355e-09    1.013118e-12    5.936520e-09    8.510845e-10    1.270000e+00    5.615220e-01    5.737104e-01
    2.565430e+00    3.118341e+02    1.694441e+01    1.079976e+09    6.406085e-09    1.042836e-12    5.942635e-09    8.515095e-10    1.280000e+00    5.615220e-01    5.812482e-01
    2.528862e+00    3.081706e+02    1.738153e+01    1.091760e+09    6.407760e-09    1.073284e-12    5.948670e-09    8.519270e-10    1.290000e+00    5.615220e-01    5.887860e-01
    2.493240e+00    3.045378e+02    1.782351e+01    1.103472e+09    6.409380e-09    1.104483e-12    5.954630e-09    8.523370e-10    1.300000e+00    5.615220e-01    5.963238e-01
    2.458528e+00    3.009352e+02    1.827029e+01    1.115112e+09    6.410950e-09    1.136451e-12    5.960515e-09    8.527395e-10    1.310000e+00    5.615220e-01    6.038617e-01
    2.424690e+00    2.973625e+02    1.872186e+01    1.126679e+09    6.412465e-09    1.169211e-12    5.966325e-09    8.531355e-10    1.320000e+00    5.615220e-01    6.113998e-01
    2.391696e+00    2.938192e+02    1.917817e+01    1.138175e+09    6.413935e-09    1.202784e-12    5.972065e-09    8.535250e-10    1.330000e+00    5.615220e-01    6.189380e-01
    2.359513e+00    2.903048e+02    1.963922e+01    1.149597e+09    6.415360e-09    1.237191e-12    5.977740e-09    8.539080e-10    1.340000e+00    5.615220e-01    6.264764e-01
