# GF180MCU-D nfet_03v3 gm/ID Processed Lookup Table
# Corner: ff
# Temperature: 25C
# W = 2.0 um
# L = 3 um (3000 nm)
# Columns: gm/id [1/V]  gm/gds [V/V]  id/W [A/m]  ft [Hz]  Cgg/W [F/m]  Cgd/W [F/m]  Cgs/W [F/m]  Cdb/W [F/m]  vgs [V]  vth [V]  vdsat [V]
# vdsat = BSIM saturation voltage (|VDS|_sat, positive); use for headroom / saturation / cascode-bias calculations
#           gm/id          gm/gds            id/W              ft           Cgg/W           Cgd/W           Cgs/W           Cdb/W             vgs             vth           vdsat
    2.741570e+01    6.001687e+02    6.805075e-05    7.573572e+04    3.920592e-09    1.171153e-15    1.076405e-10    2.421746e-11    2.600000e-01    5.541042e-01    3.830747e-02
    2.741289e+01    5.985192e+02    8.951710e-05    9.964643e+04    3.919396e-09    1.336413e-15    1.254875e-10    2.751465e-11    2.700000e-01    5.541042e-01    3.832074e-02
    2.737928e+01    5.966878e+02    1.177330e-04    1.308673e+05    3.920210e-09    1.524848e-15    1.459375e-10    3.126267e-11    2.800000e-01    5.541042e-01    3.833817e-02
    2.731838e+01    5.946647e+02    1.547692e-04    1.715174e+05    3.923298e-09    1.739734e-15    1.693631e-10    3.552234e-11    2.900000e-01    5.541042e-01    3.836103e-02
    2.723258e+01    5.924439e+02    2.033065e-04    2.242758e+05    3.928961e-09    1.984802e-15    1.961840e-10    4.036164e-11    3.000000e-01    5.541042e-01    3.839095e-02
    2.712341e+01    5.900254e+02    2.668052e-04    2.925056e+05    3.937534e-09    2.264298e-15    2.268704e-10    4.585603e-11    3.100000e-01    5.541042e-01    3.843003e-02
    2.699175e+01    5.874157e+02    3.497148e-04    3.803949e+05    3.949395e-09    2.583043e-15    2.619455e-10    5.208890e-11    3.200000e-01    5.541042e-01    3.848095e-02
    2.683813e+01    5.846337e+02    4.577352e-04    4.931151e+05    3.964956e-09    2.946500e-15    3.019884e-10    5.915165e-11    3.300000e-01    5.541042e-01    3.854710e-02
    2.666284e+01    5.817108e+02    5.981365e-04    6.369916e+05    3.984678e-09    3.360841e-15    3.476349e-10    6.714400e-11    3.400000e-01    5.541042e-01    3.863277e-02
    2.646617e+01    5.786956e+02    7.801500e-04    8.196849e+05    4.009059e-09    3.833016e-15    3.995782e-10    7.617340e-11    3.500000e-01    5.541042e-01    3.874331e-02
    2.624840e+01    5.756561e+02    1.015445e-03    1.050374e+06    4.038642e-09    4.370827e-15    4.585667e-10    8.635495e-11    3.600000e-01    5.541042e-01    3.888536e-02
    2.601013e+01    5.726841e+02    1.318693e-03    1.339937e+06    4.074007e-09    4.983005e-15    5.254010e-10    9.781035e-11    3.700000e-01    5.541042e-01    3.906706e-02
    2.575216e+01    5.698951e+02    1.708256e-03    1.701124e+06    4.115767e-09    5.679270e-15    6.009270e-10    1.106664e-10    3.800000e-01    5.541042e-01    3.929825e-02
    2.547560e+01    5.674296e+02    2.206995e-03    2.148701e+06    4.164566e-09    6.470395e-15    6.860255e-10    1.250533e-10    3.900000e-01    5.541042e-01    3.959068e-02
    2.518176e+01    5.654509e+02    2.843219e-03    2.699571e+06    4.221061e-09    7.368270e-15    7.815985e-10    1.411018e-10    4.000000e-01    5.541042e-01    3.995819e-02
    2.487203e+01    5.641396e+02    3.651811e-03    3.372842e+06    4.285916e-09    8.385935e-15    8.885480e-10    1.589398e-10    4.100000e-01    5.541042e-01    4.041675e-02
    2.454761e+01    5.636849e+02    4.675507e-03    4.189805e+06    4.359776e-09    9.537580e-15    1.007753e-09    1.786884e-10    4.200000e-01    5.541042e-01    4.098443e-02
    2.420921e+01    5.642719e+02    5.966365e-03    5.173803e+06    4.443250e-09    1.083858e-14    1.140035e-09    2.004558e-10    4.300000e-01    5.541042e-01    4.168123e-02
    2.385683e+01    5.660672e+02    7.587365e-03    6.349890e+06    4.536884e-09    1.230541e-14    1.286125e-09    2.243327e-10    4.400000e-01    5.541042e-01    4.252873e-02
    2.348944e+01    5.692014e+02    9.614120e-03    7.744239e+06    4.641129e-09    1.395561e-14    1.446618e-09    2.503844e-10    4.500000e-01    5.541042e-01    4.354956e-02
    2.310492e+01    5.737531e+02    1.213658e-02    9.383207e+06    4.756305e-09    1.580763e-14    1.621927e-09    2.786449e-10    4.600000e-01    5.541042e-01    4.476668e-02
    2.270027e+01    5.797361e+02    1.526057e-02    1.129206e+07    4.882572e-09    1.788068e-14    1.812237e-09    3.091095e-10    4.700000e-01    5.541042e-01    4.620254e-02
    2.227194e+01    5.870922e+02    1.910898e-02    1.349340e+07    5.019890e-09    2.019454e-14    2.017456e-09    3.417285e-10    4.800000e-01    5.541042e-01    4.787816e-02
    2.181644e+01    5.956887e+02    2.382243e-02    1.600545e+07    5.167995e-09    2.276927e-14    2.237178e-09    3.764020e-10    4.900000e-01    5.541042e-01    4.981227e-02
    2.133105e+01    6.053308e+02    2.955917e-02    1.884055e+07    5.326365e-09    2.562488e-14    2.470647e-09    4.129769e-10    5.000000e-01    5.541042e-01    5.202045e-02
    2.081435e+01    6.157701e+02    3.649409e-02    2.200388e+07    5.494220e-09    2.878106e-14    2.716745e-09    4.512457e-10    5.100000e-01    5.541042e-01    5.451453e-02
    2.026673e+01    6.267286e+02    4.481682e-02    2.549309e+07    5.670515e-09    3.225677e-14    2.973992e-09    4.909486e-10    5.200000e-01    5.541042e-01    5.730223e-02
    1.969049e+01    6.379166e+02    5.472905e-02    2.929849e+07    5.853955e-09    3.606996e-14    3.240567e-09    5.317790e-10    5.300000e-01    5.541042e-01    6.038705e-02
    1.908966e+01    6.490539e+02    6.644115e-02    3.340417e+07    6.043030e-09    4.023713e-14    3.514355e-09    5.733925e-10    5.400000e-01    5.541042e-01    6.376836e-02
    1.846963e+01    6.598847e+02    8.016835e-02    3.778955e+07    6.236050e-09    4.477310e-14    3.793013e-09    6.154165e-10    5.500000e-01    5.541042e-01    6.744183e-02
    1.783663e+01    6.701890e+02    9.612700e-02    4.243114e+07    6.431225e-09    4.969079e-14    4.074050e-09    6.574660e-10    5.600000e-01    5.541042e-01    7.139986e-02
    1.719718e+01    6.797879e+02    1.145308e-01    4.730442e+07    6.626705e-09    5.500095e-14    4.354917e-09    6.991555e-10    5.700000e-01    5.541042e-01    7.563223e-02
    1.655758e+01    6.885453e+02    1.355874e-01    5.238529e+07    6.820670e-09    6.071225e-14    4.633107e-09    7.401150e-10    5.800000e-01    5.541042e-01    8.012669e-02
    1.592364e+01    6.963654e+02    1.594957e-01    5.765107e+07    7.011390e-09    6.683100e-14    4.906245e-09    7.800030e-10    5.900000e-01    5.541042e-01    8.486952e-02
    1.530036e+01    7.031890e+02    1.864434e-01    6.308135e+07    7.197270e-09    7.336155e-14    5.172165e-09    8.185170e-10    6.000000e-01    5.541042e-01    8.984609e-02
    1.469186e+01    7.089873e+02    2.166051e-01    6.865789e+07    7.376925e-09    8.030615e-14    5.428980e-09    8.554005e-10    6.100000e-01    5.541042e-01    9.504131e-02
    1.410138e+01    7.137571e+02    2.501416e-01    7.436479e+07    7.549190e-09    8.766530e-14    5.675125e-09    8.904510e-10    6.200000e-01    5.541042e-01    1.004400e-01
    1.353130e+01    7.175156e+02    2.871985e-01    8.018816e+07    7.713145e-09    9.543805e-14    5.909365e-09    9.235190e-10    6.300000e-01    5.541042e-01    1.060270e-01
    1.298326e+01    7.202947e+02    3.279064e-01    8.611586e+07    7.868115e-09    1.036222e-13    6.130825e-09    9.545065e-10    6.400000e-01    5.541042e-01    1.117878e-01
    1.245828e+01    7.221388e+02    3.723808e-01    9.213696e+07    8.013675e-09    1.122145e-13    6.338945e-09    9.833660e-10    6.500000e-01    5.541042e-01    1.177082e-01
    1.195685e+01    7.231009e+02    4.207225e-01    9.824173e+07    8.149605e-09    1.212110e-13    6.533485e-09    1.010094e-09    6.600000e-01    5.541042e-01    1.237749e-01
    1.147904e+01    7.232393e+02    4.730181e-01    1.044212e+08    8.275890e-09    1.306076e-13    6.714455e-09    1.034722e-09    6.700000e-01    5.541042e-01    1.299752e-01
    1.102462e+01    7.226164e+02    5.293410e-01    1.106672e+08    8.392675e-09    1.403999e-13    6.882100e-09    1.057316e-09    6.800000e-01    5.541042e-01    1.362972e-01
    1.059308e+01    7.212938e+02    5.897525e-01    1.169717e+08    8.500245e-09    1.505832e-13    7.036845e-09    1.077961e-09    6.900000e-01    5.541042e-01    1.427298e-01
    1.018376e+01    7.193363e+02    6.543020e-01    1.233276e+08    8.598970e-09    1.611536e-13    7.179250e-09    1.096763e-09    7.000000e-01    5.541042e-01    1.492626e-01
    9.795859e+00    7.168052e+02    7.230295e-01    1.297277e+08    8.689320e-09    1.721070e-13    7.309970e-09    1.113838e-09    7.100000e-01    5.541042e-01    1.558864e-01
    9.428511e+00    7.137613e+02    7.959650e-01    1.361659e+08    8.771800e-09    1.834404e-13    7.429735e-09    1.129308e-09    7.200000e-01    5.541042e-01    1.625923e-01
    9.080779e+00    7.102622e+02    8.731310e-01    1.426362e+08    8.846935e-09    1.951508e-13    7.539300e-09    1.143298e-09    7.300000e-01    5.541042e-01    1.693724e-01
    8.751696e+00    7.063611e+02    9.545435e-01    1.491327e+08    8.915285e-09    2.072361e-13    7.639445e-09    1.155933e-09    7.400000e-01    5.541042e-01    1.762194e-01
    8.440307e+00    7.021081e+02    1.040211e+00    1.556504e+08    8.977380e-09    2.196948e-13    7.730930e-09    1.167332e-09    7.500000e-01    5.541042e-01    1.831268e-01
    8.145656e+00    6.975506e+02    1.130138e+00    1.621845e+08    9.033755e-09    2.325262e-13    7.814495e-09    1.177610e-09    7.600000e-01    5.541042e-01    1.900886e-01
    7.866799e+00    6.927301e+02    1.224325e+00    1.687307e+08    9.084910e-09    2.457302e-13    7.890850e-09    1.186877e-09    7.700000e-01    5.541042e-01    1.970994e-01
    7.602827e+00    6.876851e+02    1.322767e+00    1.752848e+08    9.131335e-09    2.593073e-13    7.960665e-09    1.195233e-09    7.800000e-01    5.541042e-01    2.041544e-01
    7.352866e+00    6.824506e+02    1.425457e+00    1.818433e+08    9.173470e-09    2.732589e-13    8.024565e-09    1.202772e-09    7.900000e-01    5.541042e-01    2.112493e-01
    7.116074e+00    6.770575e+02    1.532387e+00    1.884030e+08    9.211730e-09    2.875870e-13    8.083125e-09    1.209579e-09    8.000000e-01    5.541042e-01    2.183800e-01
    6.891651e+00    6.715329e+02    1.643545e+00    1.949609e+08    9.246500e-09    3.022942e-13    8.136880e-09    1.215734e-09    8.100000e-01    5.541042e-01    2.255431e-01
    6.678840e+00    6.659019e+02    1.758917e+00    2.015143e+08    9.278135e-09    3.173836e-13    8.186320e-09    1.221305e-09    8.200000e-01    5.541042e-01    2.327355e-01
    6.476920e+00    6.601857e+02    1.878490e+00    2.080609e+08    9.306945e-09    3.328593e-13    8.231875e-09    1.226357e-09    8.300000e-01    5.541042e-01    2.399544e-01
    6.285220e+00    6.544032e+02    2.002248e+00    2.145987e+08    9.333220e-09    3.487256e-13    8.273950e-09    1.230949e-09    8.400000e-01    5.541042e-01    2.471972e-01
    6.103100e+00    6.485707e+02    2.130175e+00    2.211254e+08    9.357230e-09    3.649875e-13    8.312910e-09    1.235129e-09    8.500000e-01    5.541042e-01    2.544618e-01
    5.929965e+00    6.427026e+02    2.262255e+00    2.276399e+08    9.379195e-09    3.816506e-13    8.349070e-09    1.238944e-09    8.600000e-01    5.541042e-01    2.617461e-01
    5.765255e+00    6.368113e+02    2.398471e+00    2.341401e+08    9.399340e-09    3.987208e-13    8.382730e-09    1.242435e-09    8.700000e-01    5.541042e-01    2.690485e-01
    5.608451e+00    6.309072e+02    2.538806e+00    2.406252e+08    9.417840e-09    4.162047e-13    8.414135e-09    1.245637e-09    8.800000e-01    5.541042e-01    2.763672e-01
    5.459063e+00    6.249999e+02    2.683241e+00    2.470937e+08    9.434875e-09    4.341095e-13    8.443530e-09    1.248584e-09    8.900000e-01    5.541042e-01    2.837009e-01
    5.316635e+00    6.190969e+02    2.831759e+00    2.535446e+08    9.450590e-09    4.524424e-13    8.471115e-09    1.251302e-09    9.000000e-01    5.541042e-01    2.910483e-01
    5.180747e+00    6.132052e+02    2.984343e+00    2.599772e+08    9.465115e-09    4.712114e-13    8.497075e-09    1.253817e-09    9.100000e-01    5.541042e-01    2.984084e-01
    5.050996e+00    6.073298e+02    3.140976e+00    2.663903e+08    9.478580e-09    4.904250e-13    8.521575e-09    1.256152e-09    9.200000e-01    5.541042e-01    3.057801e-01
    4.927020e+00    6.014761e+02    3.301638e+00    2.727836e+08    9.491080e-09    5.100920e-13    8.544760e-09    1.258324e-09    9.300000e-01    5.541042e-01    3.131625e-01
    4.808471e+00    5.956479e+02    3.466314e+00    2.791562e+08    9.502715e-09    5.302210e-13    8.566760e-09    1.260353e-09    9.400000e-01    5.541042e-01    3.205550e-01
    4.695031e+00    5.898486e+02    3.634985e+00    2.855077e+08    9.513570e-09    5.508225e-13    8.587685e-09    1.262252e-09    9.500000e-01    5.541042e-01    3.279567e-01
    4.586401e+00    5.840808e+02    3.807635e+00    2.918374e+08    9.523720e-09    5.719060e-13    8.607640e-09    1.264036e-09    9.600000e-01    5.541042e-01    3.353671e-01
    4.482304e+00    5.783469e+02    3.984246e+00    2.981452e+08    9.533225e-09    5.934820e-13    8.626720e-09    1.265717e-09    9.700000e-01    5.541042e-01    3.427855e-01
    4.382480e+00    5.726486e+02    4.164802e+00    3.044305e+08    9.542150e-09    6.155615e-13    8.645000e-09    1.267304e-09    9.800000e-01    5.541042e-01    3.502116e-01
    4.286689e+00    5.669875e+02    4.349284e+00    3.106930e+08    9.550550e-09    6.381550e-13    8.662560e-09    1.268806e-09    9.900000e-01    5.541042e-01    3.576449e-01
    4.194703e+00    5.613645e+02    4.537676e+00    3.169325e+08    9.558465e-09    6.612755e-13    8.679455e-09    1.270233e-09    1.000000e+00    5.541042e-01    3.650849e-01
    4.106315e+00    5.557807e+02    4.729962e+00    3.231485e+08    9.565945e-09    6.849340e-13    8.695745e-09    1.271592e-09    1.010000e+00    5.541042e-01    3.725314e-01
    4.021328e+00    5.502366e+02    4.926125e+00    3.293411e+08    9.573020e-09    7.091430e-13    8.711480e-09    1.272887e-09    1.020000e+00    5.541042e-01    3.799841e-01
    3.939559e+00    5.447326e+02    5.126145e+00    3.355101e+08    9.579725e-09    7.339155e-13    8.726710e-09    1.274127e-09    1.030000e+00    5.541042e-01    3.874426e-01
    3.860832e+00    5.392691e+02    5.330015e+00    3.416552e+08    9.586090e-09    7.592650e-13    8.741470e-09    1.275315e-09    1.040000e+00    5.541042e-01    3.949068e-01
    3.784994e+00    5.338462e+02    5.537710e+00    3.477762e+08    9.592145e-09    7.852050e-13    8.755800e-09    1.276455e-09    1.050000e+00    5.541042e-01    4.023764e-01
    3.711896e+00    5.284637e+02    5.749210e+00    3.538730e+08    9.597910e-09    8.117495e-13    8.769730e-09    1.277552e-09    1.060000e+00    5.541042e-01    4.098513e-01
    3.641391e+00    5.231217e+02    5.964510e+00    3.599455e+08    9.603410e-09    8.389130e-13    8.783290e-09    1.278610e-09    1.070000e+00    5.541042e-01    4.173313e-01
    3.573351e+00    5.178199e+02    6.183590e+00    3.659937e+08    9.608660e-09    8.667110e-13    8.796510e-09    1.279630e-09    1.080000e+00    5.541042e-01    4.248163e-01
    3.507653e+00    5.125581e+02    6.406430e+00    3.720174e+08    9.613680e-09    8.951585e-13    8.809405e-09    1.280617e-09    1.090000e+00    5.541042e-01    4.323060e-01
    3.444183e+00    5.073359e+02    6.633015e+00    3.780163e+08    9.618490e-09    9.242720e-13    8.822005e-09    1.281573e-09    1.100000e+00    5.541042e-01    4.398006e-01
    3.382832e+00    5.021530e+02    6.863330e+00    3.839906e+08    9.623095e-09    9.540670e-13    8.834325e-09    1.282499e-09    1.110000e+00    5.541042e-01    4.472997e-01
    3.323496e+00    4.970089e+02    7.097360e+00    3.899403e+08    9.627510e-09    9.845610e-13    8.846385e-09    1.283399e-09    1.120000e+00    5.541042e-01    4.548034e-01
    3.266083e+00    4.919032e+02    7.335085e+00    3.958649e+08    9.631755e-09    1.015772e-12    8.858195e-09    1.284273e-09    1.130000e+00    5.541042e-01    4.623117e-01
    3.210499e+00    4.868355e+02    7.576495e+00    4.017648e+08    9.635830e-09    1.047717e-12    8.869775e-09    1.285123e-09    1.140000e+00    5.541042e-01    4.698243e-01
    3.156664e+00    4.818051e+02    7.821565e+00    4.076399e+08    9.639745e-09    1.080414e-12    8.881135e-09    1.285951e-09    1.150000e+00    5.541042e-01    4.773414e-01
    3.104494e+00    4.768117e+02    8.070290e+00    4.134895e+08    9.643520e-09    1.113883e-12    8.892290e-09    1.286758e-09    1.160000e+00    5.541042e-01    4.848628e-01
    3.053917e+00    4.718551e+02    8.322645e+00    4.193143e+08    9.647150e-09    1.148143e-12    8.903245e-09    1.287547e-09    1.170000e+00    5.541042e-01    4.923886e-01
    3.004862e+00    4.669338e+02    8.578615e+00    4.251138e+08    9.650650e-09    1.183215e-12    8.914015e-09    1.288316e-09    1.180000e+00    5.541042e-01    4.999186e-01
    2.957259e+00    4.620482e+02    8.838190e+00    4.308881e+08    9.654025e-09    1.219120e-12    8.924610e-09    1.289067e-09    1.190000e+00    5.541042e-01    5.074530e-01
    2.911049e+00    4.571976e+02    9.101345e+00    4.366369e+08    9.657280e-09    1.255878e-12    8.935035e-09    1.289802e-09    1.200000e+00    5.541042e-01    5.149916e-01
    2.866170e+00    4.523815e+02    9.368075e+00    4.423604e+08    9.660425e-09    1.293511e-12    8.945300e-09    1.290522e-09    1.210000e+00    5.541042e-01    5.225345e-01
    2.822568e+00    4.475991e+02    9.638350e+00    4.480583e+08    9.663460e-09    1.332042e-12    8.955410e-09    1.291225e-09    1.220000e+00    5.541042e-01    5.300817e-01
    2.780186e+00    4.428499e+02    9.912165e+00    4.537308e+08    9.666390e-09    1.371496e-12    8.965375e-09    1.291916e-09    1.230000e+00    5.541042e-01    5.376332e-01
    2.738976e+00    4.381335e+02    1.018950e+01    4.593776e+08    9.669220e-09    1.411894e-12    8.975200e-09    1.292592e-09    1.240000e+00    5.541042e-01    5.451890e-01
    2.698892e+00    4.334497e+02    1.047034e+01    4.649989e+08    9.671955e-09    1.453263e-12    8.984890e-09    1.293255e-09    1.250000e+00    5.541042e-01    5.527490e-01
    2.659885e+00    4.287976e+02    1.075466e+01    4.705943e+08    9.674600e-09    1.495628e-12    8.994445e-09    1.293905e-09    1.260000e+00    5.541042e-01    5.603134e-01
    2.621915e+00    4.241768e+02    1.104246e+01    4.761638e+08    9.677160e-09    1.539015e-12    9.003880e-09    1.294544e-09    1.270000e+00    5.541042e-01    5.678821e-01
    2.584940e+00    4.195871e+02    1.133370e+01    4.817074e+08    9.679635e-09    1.583451e-12    9.013195e-09    1.295171e-09    1.280000e+00    5.541042e-01    5.754551e-01
    2.548922e+00    4.150280e+02    1.162838e+01    4.872251e+08    9.682030e-09    1.628964e-12    9.022395e-09    1.295787e-09    1.290000e+00    5.541042e-01    5.830325e-01
    2.513822e+00    4.104986e+02    1.192650e+01    4.927167e+08    9.684345e-09    1.675583e-12    9.031480e-09    1.296393e-09    1.300000e+00    5.541042e-01    5.906143e-01
    2.479609e+00    4.059989e+02    1.222801e+01    4.981820e+08    9.686590e-09    1.723337e-12    9.040460e-09    1.296988e-09    1.310000e+00    5.541042e-01    5.982005e-01
    2.446248e+00    4.015285e+02    1.253290e+01    5.036212e+08    9.688760e-09    1.772257e-12    9.049335e-09    1.297574e-09    1.320000e+00    5.541042e-01    6.057912e-01
    2.413707e+00    3.970867e+02    1.284117e+01    5.090342e+08    9.690860e-09    1.822374e-12    9.058110e-09    1.298150e-09    1.330000e+00    5.541042e-01    6.133863e-01
    2.381957e+00    3.926732e+02    1.315279e+01    5.144206e+08    9.692895e-09    1.873721e-12    9.066790e-09    1.298716e-09    1.340000e+00    5.541042e-01    6.209860e-01
