# GF180MCU-D nfet_03v3 gm/ID Processed Lookup Table
# Corner: ff
# Temperature: 25C
# W = 2.0 um
# L = 1.5 um (1500 nm)
# Columns: gm/id [1/V]  gm/gds [V/V]  id/W [A/m]  ft [Hz]  Cgg/W [F/m]  Cgd/W [F/m]  Cgs/W [F/m]  Cdb/W [F/m]  vgs [V]  vth [V]  vdsat [V]
# vdsat = BSIM saturation voltage (|VDS|_sat, positive); use for headroom / saturation / cascode-bias calculations
#           gm/id          gm/gds            id/W              ft           Cgg/W           Cgd/W           Cgs/W           Cdb/W             vgs             vth           vdsat
    2.764002e+01    4.159348e+02    9.100660e-05    2.082133e+05    1.922750e-09    4.032166e-16    3.252349e-11    8.098590e-12    2.600000e-01    5.688010e-01    4.181028e-02
    2.763645e+01    4.150305e+02    1.199823e-04    2.748716e+05    1.919949e-09    4.608929e-16    3.843982e-11    9.209680e-12    2.700000e-01    5.688010e-01    4.181883e-02
    2.760923e+01    4.140204e+02    1.581589e-04    3.623710e+05    1.917850e-09    5.267120e-16    4.522699e-11    1.047361e-11    2.800000e-01    5.688010e-01    4.183008e-02
    2.756094e+01    4.128952e+02    2.084037e-04    4.769804e+05    1.916545e-09    6.018315e-16    5.301335e-11    1.191178e-11    2.900000e-01    5.688010e-01    4.184488e-02
    2.749321e+01    4.116468e+02    2.744508e-04    6.267345e+05    1.916137e-09    6.875760e-16    6.194585e-11    1.354847e-11    3.000000e-01    5.688010e-01    4.186432e-02
    2.740696e+01    4.102687e+02    3.611513e-04    8.218741e+05    1.916748e-09    7.854615e-16    7.219210e-11    1.541107e-11    3.100000e-01    5.688010e-01    4.188981e-02
    2.730252e+01    4.087563e+02    4.747880e-04    1.075370e+06    1.918513e-09    8.972205e-16    8.394200e-11    1.753037e-11    3.200000e-01    5.688010e-01    4.192319e-02
    2.717990e+01    4.071097e+02    6.234725e-04    1.403543e+06    1.921586e-09    1.024831e-15    9.740980e-11    1.994079e-11    3.300000e-01    5.688010e-01    4.196678e-02
    2.703885e+01    4.053341e+02    8.176405e-04    1.826766e+06    1.926139e-09    1.170544e-15    1.128357e-10    2.268055e-11    3.400000e-01    5.688010e-01    4.202360e-02
    2.687898e+01    4.034414e+02    1.070666e-03    2.370265e+06    1.932369e-09    1.336922e-15    1.304872e-10    2.579192e-11    3.500000e-01    5.688010e-01    4.209742e-02
    2.669989e+01    4.014532e+02    1.399619e-03    3.064990e+06    1.940485e-09    1.526868e-15    1.506602e-10    2.932126e-11    3.600000e-01    5.688010e-01    4.219306e-02
    2.650132e+01    3.994019e+02    1.826189e-03    3.948543e+06    1.950727e-09    1.743669e-15    1.736801e-10    3.331905e-11    3.700000e-01    5.688010e-01    4.231651e-02
    2.628322e+01    3.973343e+02    2.377806e-03    5.066145e+06    1.963349e-09    1.991024e-15    1.999010e-10    3.783978e-11    3.800000e-01    5.688010e-01    4.247521e-02
    2.604576e+01    3.953115e+02    3.089000e-03    6.471577e+06    1.978632e-09    2.273096e-15    2.297055e-10    4.294167e-11    3.900000e-01    5.688010e-01    4.267828e-02
    2.578952e+01    3.934121e+02    4.003013e-03    8.228111e+06    1.996872e-09    2.594541e-15    2.635023e-10    4.868619e-11    4.000000e-01    5.688010e-01    4.293680e-02
    2.551535e+01    3.917314e+02    5.173735e-03    1.040930e+07    2.018387e-09    2.960547e-15    3.017222e-10    5.513730e-11    4.100000e-01    5.688010e-01    4.326400e-02
    2.522432e+01    3.903792e+02    6.667965e-03    1.309959e+07    2.043503e-09    3.376868e-15    3.448131e-10    6.236035e-11    4.200000e-01    5.688010e-01    4.367545e-02
    2.491761e+01    3.894777e+02    8.568090e-03    1.639472e+07    2.072558e-09    3.849853e-15    3.932317e-10    7.042080e-11    4.300000e-01    5.688010e-01    4.418918e-02
    2.459617e+01    3.891547e+02    1.097515e-02    2.040154e+07    2.105886e-09    4.386461e-15    4.474327e-10    7.938215e-11    4.400000e-01    5.688010e-01    4.482562e-02
    2.426048e+01    3.895335e+02    1.401230e-02    2.523724e+07    2.143814e-09    4.994273e-15    5.078555e-10    8.930390e-11    4.500000e-01    5.688010e-01    4.560741e-02
    2.391024e+01    3.907252e+02    1.782869e-02    3.102737e+07    2.186647e-09    5.681485e-15    5.749070e-10    1.002386e-10    4.600000e-01    5.688010e-01    4.655900e-02
    2.354410e+01    3.928137e+02    2.260344e-02    3.790243e+07    2.234651e-09    6.456885e-15    6.489430e-10    1.122287e-10    4.700000e-01    5.688010e-01    4.770605e-02
    2.315962e+01    3.958461e+02    2.854963e-02    4.599262e+07    2.288041e-09    7.329800e-15    7.302435e-10    1.253036e-10    4.800000e-01    5.688010e-01    4.907456e-02
    2.275339e+01    3.998221e+02    3.591788e-02    5.542054e+07    2.346963e-09    8.310045e-15    8.189910e-10    1.394754e-10    4.900000e-01    5.688010e-01    5.068996e-02
    2.232149e+01    4.046896e+02    4.499893e-02    6.629233e+07    2.411471e-09    9.407800e-15    9.152440e-10    1.547361e-10    5.000000e-01    5.688010e-01    5.257595e-02
    2.186003e+01    4.103437e+02    5.612485e-02    7.868805e+07    2.481518e-09    1.063353e-14    1.018915e-09    1.710538e-10    5.100000e-01    5.688010e-01    5.475346e-02
    2.136604e+01    4.166328e+02    6.966805e-02    9.265285e+07    2.556930e-09    1.199779e-14    1.129749e-09    1.883710e-10    5.200000e-01    5.688010e-01    5.723966e-02
    2.083791e+01    4.233701e+02    8.603855e-02    1.081907e+08    2.637408e-09    1.351111e-14    1.247311e-09    2.066027e-10    5.300000e-01    5.688010e-01    6.004723e-02
    2.027607e+01    4.303475e+02    1.056781e-01    1.252619e+08    2.722513e-09    1.518376e-14    1.370980e-09    2.256365e-10    5.400000e-01    5.688010e-01    6.318385e-02
    1.968301e+01    4.373520e+02    1.290528e-01    1.437854e+08    2.811671e-09    1.702565e-14    1.499952e-09    2.453347e-10    5.500000e-01    5.688010e-01    6.665211e-02
    1.906316e+01    4.441802e+02    1.566442e-01    1.636457e+08    2.904187e-09    1.904601e-14    1.633255e-09    2.655366e-10    5.600000e-01    5.688010e-01    7.044964e-02
    1.842242e+01    4.506514e+02    1.889387e-01    1.847029e+08    2.999260e-09    2.125333e-14    1.769779e-09    2.860643e-10    5.700000e-01    5.688010e-01    7.456960e-02
    1.776766e+01    4.566151e+02    2.264185e-01    2.068044e+08    3.096012e-09    2.365516e-14    1.908307e-09    3.067282e-10    5.800000e-01    5.688010e-01    7.900129e-02
    1.710604e+01    4.619549e+02    2.695515e-01    2.297960e+08    3.193514e-09    2.625803e-14    2.047565e-09    3.273344e-10    5.900000e-01    5.688010e-01    8.373092e-02
    1.644455e+01    4.665897e+02    3.187835e-01    2.535317e+08    3.290831e-09    2.906729e-14    2.186267e-09    3.476922e-10    6.000000e-01    5.688010e-01    8.874242e-02
    1.578955e+01    4.704705e+02    3.745319e-01    2.778800e+08    3.387049e-09    3.208720e-14    2.323166e-09    3.676210e-10    6.100000e-01    5.688010e-01    9.401814e-02
    1.514651e+01    4.735760e+02    4.371810e-01    3.027269e+08    3.481312e-09    3.532081e-14    2.457099e-09    3.869566e-10    6.200000e-01    5.688010e-01    9.953956e-02
    1.451995e+01    4.759092e+02    5.070785e-01    3.279787e+08    3.572851e-09    3.877015e-14    2.587023e-09    4.055567e-10    6.300000e-01    5.688010e-01    1.052879e-01
    1.391334e+01    4.774899e+02    5.845345e-01    3.535586e+08    3.661004e-09    4.243620e-14    2.712047e-09    4.233037e-10    6.400000e-01    5.688010e-01    1.112443e-01
    1.332920e+01    4.783518e+02    6.698210e-01    3.794061e+08    3.745230e-09    4.631908e-14    2.831452e-09    4.401071e-10    6.500000e-01    5.688010e-01    1.173908e-01
    1.276923e+01    4.785376e+02    7.631715e-01    4.054736e+08    3.825115e-09    5.041815e-14    2.944689e-09    4.559037e-10    6.600000e-01    5.688010e-01    1.237098e-01
    1.223443e+01    4.780967e+02    8.647850e-01    4.317237e+08    3.900372e-09    5.473225e-14    3.051388e-09    4.706559e-10    6.700000e-01    5.688010e-01    1.301849e-01
    1.172518e+01    4.770808e+02    9.748255e-01    4.581261e+08    3.970832e-09    5.925975e-14    3.151340e-09    4.843499e-10    6.800000e-01    5.688010e-01    1.368004e-01
    1.124143e+01    4.755431e+02    1.093425e+00    4.846554e+08    4.036433e-09    6.399860e-14    3.244484e-09    4.969927e-10    6.900000e-01    5.688010e-01    1.435420e-01
    1.078277e+01    4.735369e+02    1.220690e+00    5.112905e+08    4.097208e-09    6.894685e-14    3.330883e-09    5.086085e-10    7.000000e-01    5.688010e-01    1.503964e-01
    1.034852e+01    4.711135e+02    1.356697e+00    5.380120e+08    4.153263e-09    7.410230e-14    3.410705e-09    5.192355e-10    7.100000e-01    5.688010e-01    1.573512e-01
    9.937846e+00    4.683220e+02    1.501502e+00    5.648020e+08    4.204768e-09    7.946290e-14    3.484200e-09    5.289220e-10    7.200000e-01    5.688010e-01    1.643954e-01
    9.549757e+00    4.652089e+02    1.655141e+00    5.916439e+08    4.251938e-09    8.502675e-14    3.551679e-09    5.377235e-10    7.300000e-01    5.688010e-01    1.715188e-01
    9.183208e+00    4.618170e+02    1.817630e+00    6.185215e+08    4.295019e-09    9.079220e-14    3.613493e-09    5.457000e-10    7.400000e-01    5.688010e-01    1.787121e-01
    8.837096e+00    4.581861e+02    1.988973e+00    6.454193e+08    4.334277e-09    9.675785e-14    3.670021e-09    5.529135e-10    7.500000e-01    5.688010e-01    1.859670e-01
    8.510324e+00    4.543523e+02    2.169160e+00    6.723224e+08    4.369987e-09    1.029226e-13    3.721649e-09    5.594265e-10    7.600000e-01    5.688010e-01    1.932761e-01
    8.201787e+00    4.503482e+02    2.358170e+00    6.992163e+08    4.402426e-09    1.092858e-13    3.768766e-09    5.653005e-10    7.700000e-01    5.688010e-01    2.006326e-01
    7.910418e+00    4.462034e+02    2.555973e+00    7.260876e+08    4.431867e-09    1.158470e-13    3.811754e-09    5.705935e-10    7.800000e-01    5.688010e-01    2.080304e-01
    7.635173e+00    4.419439e+02    2.762532e+00    7.529231e+08    4.458572e-09    1.226062e-13    3.850978e-09    5.753625e-10    7.900000e-01    5.688010e-01    2.154643e-01
    7.375052e+00    4.375928e+02    2.977806e+00    7.797102e+08    4.482789e-09    1.295639e-13    3.886785e-09    5.796590e-10    8.000000e-01    5.688010e-01    2.229295e-01
    7.129106e+00    4.331702e+02    3.201745e+00    8.064378e+08    4.504754e-09    1.367208e-13    3.919500e-09    5.835315e-10    8.100000e-01    5.688010e-01    2.304215e-01
    6.896434e+00    4.286947e+02    3.434299e+00    8.330948e+08    4.524685e-09    1.440780e-13    3.949425e-09    5.870250e-10    8.200000e-01    5.688010e-01    2.379368e-01
    6.676179e+00    4.241809e+02    3.675414e+00    8.596712e+08    4.542783e-09    1.516369e-13    3.976838e-09    5.901795e-10    8.300000e-01    5.688010e-01    2.454718e-01
    6.467541e+00    4.196427e+02    3.925034e+00    8.861579e+08    4.559232e-09    1.593995e-13    4.001995e-09    5.930315e-10    8.400000e-01    5.688010e-01    2.530237e-01
    6.269769e+00    4.150914e+02    4.183101e+00    9.125464e+08    4.574199e-09    1.673679e-13    4.025125e-09    5.956150e-10    8.500000e-01    5.688010e-01    2.605897e-01
    6.082158e+00    4.105371e+02    4.449555e+00    9.388285e+08    4.587839e-09    1.755444e-13    4.046440e-09    5.979595e-10    8.600000e-01    5.688010e-01    2.681675e-01
    5.904052e+00    4.059883e+02    4.724337e+00    9.649979e+08    4.600287e-09    1.839320e-13    4.066127e-09    6.000915e-10    8.700000e-01    5.688010e-01    2.757550e-01
    5.734835e+00    4.014516e+02    5.007390e+00    9.910475e+08    4.611668e-09    1.925337e-13    4.084358e-09    6.020345e-10    8.800000e-01    5.688010e-01    2.833504e-01
    5.573940e+00    3.969335e+02    5.298650e+00    1.016972e+09    4.622092e-09    2.013528e-13    4.101282e-09    6.038105e-10    8.900000e-01    5.688010e-01    2.909521e-01
    5.420836e+00    3.924389e+02    5.598055e+00    1.042766e+09    4.631660e-09    2.103929e-13    4.117039e-09    6.054375e-10    9.000000e-01    5.688010e-01    2.985586e-01
    5.275027e+00    3.879722e+02    5.905550e+00    1.068425e+09    4.640459e-09    2.196580e-13    4.131748e-09    6.069325e-10    9.100000e-01    5.688010e-01    3.061687e-01
    5.136057e+00    3.835365e+02    6.221070e+00    1.093945e+09    4.648570e-09    2.291523e-13    4.145518e-09    6.083100e-10    9.200000e-01    5.688010e-01    3.137812e-01
    5.003494e+00    3.791347e+02    6.544565e+00    1.119323e+09    4.656063e-09    2.388801e-13    4.158445e-09    6.095830e-10    9.300000e-01    5.688010e-01    3.213952e-01
    4.876948e+00    3.747691e+02    6.875965e+00    1.144555e+09    4.663000e-09    2.488461e-13    4.170615e-09    6.107635e-10    9.400000e-01    5.688010e-01    3.290097e-01
    4.756048e+00    3.704416e+02    7.215220e+00    1.169638e+09    4.669438e-09    2.590551e-13    4.182105e-09    6.118605e-10    9.500000e-01    5.688010e-01    3.366240e-01
    4.640457e+00    3.661538e+02    7.562265e+00    1.194570e+09    4.675426e-09    2.695124e-13    4.192980e-09    6.128840e-10    9.600000e-01    5.688010e-01    3.442375e-01
    4.529855e+00    3.619064e+02    7.917045e+00    1.219349e+09    4.681008e-09    2.802233e-13    4.203303e-09    6.138415e-10    9.700000e-01    5.688010e-01    3.518494e-01
    4.423946e+00    3.577005e+02    8.279505e+00    1.243974e+09    4.686223e-09    2.911932e-13    4.213127e-09    6.147400e-10    9.800000e-01    5.688010e-01    3.594594e-01
    4.322457e+00    3.535365e+02    8.649590e+00    1.268443e+09    4.691107e-09    3.024282e-13    4.222497e-09    6.155855e-10    9.900000e-01    5.688010e-01    3.670670e-01
    4.225135e+00    3.494149e+02    9.027235e+00    1.292755e+09    4.695690e-09    3.139341e-13    4.231457e-09    6.163830e-10    1.000000e+00    5.688010e-01    3.746716e-01
    4.131741e+00    3.453356e+02    9.412395e+00    1.316908e+09    4.700000e-09    3.257174e-13    4.240044e-09    6.171380e-10    1.010000e+00    5.688010e-01    3.822731e-01
    4.042053e+00    3.412988e+02    9.805010e+00    1.340902e+09    4.704062e-09    3.377844e-13    4.248292e-09    6.178545e-10    1.020000e+00    5.688010e-01    3.898711e-01
    3.955870e+00    3.373047e+02    1.020502e+01    1.364737e+09    4.707896e-09    3.501420e-13    4.256228e-09    6.185360e-10    1.030000e+00    5.688010e-01    3.974653e-01
    3.872994e+00    3.333526e+02    1.061238e+01    1.388413e+09    4.711523e-09    3.627970e-13    4.263882e-09    6.191860e-10    1.040000e+00    5.688010e-01    4.050555e-01
    3.793250e+00    3.294425e+02    1.102704e+01    1.411928e+09    4.714961e-09    3.757569e-13    4.271274e-09    6.198070e-10    1.050000e+00    5.688010e-01    4.126415e-01
    3.716473e+00    3.255740e+02    1.144893e+01    1.435283e+09    4.718224e-09    3.890288e-13    4.278428e-09    6.204015e-10    1.060000e+00    5.688010e-01    4.202232e-01
    3.642502e+00    3.217467e+02    1.187801e+01    1.458477e+09    4.721326e-09    4.026206e-13    4.285360e-09    6.209725e-10    1.070000e+00    5.688010e-01    4.278004e-01
    3.571194e+00    3.179601e+02    1.231423e+01    1.481511e+09    4.724281e-09    4.165402e-13    4.292090e-09    6.215215e-10    1.080000e+00    5.688010e-01    4.353729e-01
    3.502411e+00    3.142137e+02    1.275752e+01    1.504385e+09    4.727098e-09    4.307958e-13    4.298630e-09    6.220505e-10    1.090000e+00    5.688010e-01    4.429407e-01
    3.436029e+00    3.105072e+02    1.320785e+01    1.527100e+09    4.729788e-09    4.453958e-13    4.304995e-09    6.225605e-10    1.100000e+00    5.688010e-01    4.505038e-01
    3.371924e+00    3.068398e+02    1.366516e+01    1.549654e+09    4.732359e-09    4.603489e-13    4.311197e-09    6.230540e-10    1.110000e+00    5.688010e-01    4.580620e-01
    3.309987e+00    3.032111e+02    1.412939e+01    1.572050e+09    4.734821e-09    4.756642e-13    4.317247e-09    6.235315e-10    1.120000e+00    5.688010e-01    4.656152e-01
    3.250112e+00    2.996204e+02    1.460050e+01    1.594286e+09    4.737180e-09    4.913509e-13    4.323154e-09    6.239945e-10    1.130000e+00    5.688010e-01    4.731636e-01
    3.192199e+00    2.960673e+02    1.507844e+01    1.616364e+09    4.739442e-09    5.074185e-13    4.328928e-09    6.244435e-10    1.140000e+00    5.688010e-01    4.807070e-01
    3.136157e+00    2.925511e+02    1.556315e+01    1.638284e+09    4.741616e-09    5.238770e-13    4.334577e-09    6.248800e-10    1.150000e+00    5.688010e-01    4.882454e-01
    3.081898e+00    2.890712e+02    1.605459e+01    1.660046e+09    4.743704e-09    5.407365e-13    4.340107e-09    6.253040e-10    1.160000e+00    5.688010e-01    4.957789e-01
    3.029339e+00    2.856272e+02    1.655270e+01    1.681650e+09    4.745712e-09    5.580075e-13    4.345527e-09    6.257175e-10    1.170000e+00    5.688010e-01    5.033074e-01
    2.978405e+00    2.822184e+02    1.705745e+01    1.703099e+09    4.747645e-09    5.757005e-13    4.350842e-09    6.261205e-10    1.180000e+00    5.688010e-01    5.108310e-01
    2.929021e+00    2.788442e+02    1.756877e+01    1.724390e+09    4.749506e-09    5.938275e-13    4.356057e-09    6.265135e-10    1.190000e+00    5.688010e-01    5.183497e-01
    2.881122e+00    2.755042e+02    1.808662e+01    1.745527e+09    4.751300e-09    6.123985e-13    4.361177e-09    6.268970e-10    1.200000e+00    5.688010e-01    5.258634e-01
    2.834635e+00    2.721974e+02    1.861095e+01    1.766506e+09    4.753031e-09    6.314265e-13    4.366207e-09    6.272715e-10    1.210000e+00    5.688010e-01    5.333723e-01
    2.789508e+00    2.689237e+02    1.914171e+01    1.787332e+09    4.754700e-09    6.509235e-13    4.371152e-09    6.276380e-10    1.220000e+00    5.688010e-01    5.408764e-01
    2.745681e+00    2.656828e+02    1.967885e+01    1.808005e+09    4.756312e-09    6.709015e-13    4.376015e-09    6.279965e-10    1.230000e+00    5.688010e-01    5.483758e-01
    2.703096e+00    2.624735e+02    2.022233e+01    1.828523e+09    4.757868e-09    6.913740e-13    4.380801e-09    6.283475e-10    1.240000e+00    5.688010e-01    5.558704e-01
    2.661703e+00    2.592956e+02    2.077210e+01    1.848887e+09    4.759372e-09    7.123545e-13    4.385512e-09    6.286910e-10    1.250000e+00    5.688010e-01    5.633603e-01
    2.621453e+00    2.561485e+02    2.132810e+01    1.869098e+09    4.760826e-09    7.338560e-13    4.390152e-09    6.290280e-10    1.260000e+00    5.688010e-01    5.708456e-01
    2.582302e+00    2.530320e+02    2.189029e+01    1.889158e+09    4.762231e-09    7.558930e-13    4.394723e-09    6.293585e-10    1.270000e+00    5.688010e-01    5.783264e-01
    2.544203e+00    2.499453e+02    2.245863e+01    1.909065e+09    4.763590e-09    7.784805e-13    4.399229e-09    6.296825e-10    1.280000e+00    5.688010e-01    5.858026e-01
    2.507116e+00    2.468881e+02    2.303306e+01    1.928821e+09    4.764904e-09    8.016330e-13    4.403671e-09    6.300005e-10    1.290000e+00    5.688010e-01    5.932744e-01
    2.471000e+00    2.438597e+02    2.361354e+01    1.948426e+09    4.766176e-09    8.253665e-13    4.408053e-09    6.303130e-10    1.300000e+00    5.688010e-01    6.007419e-01
    2.435820e+00    2.408601e+02    2.420003e+01    1.967881e+09    4.767408e-09    8.496970e-13    4.412376e-09    6.306195e-10    1.310000e+00    5.688010e-01    6.082050e-01
    2.401538e+00    2.378884e+02    2.479247e+01    1.987186e+09    4.768599e-09    8.746405e-13    4.416643e-09    6.309210e-10    1.320000e+00    5.688010e-01    6.156639e-01
    2.368123e+00    2.349446e+02    2.539081e+01    2.006342e+09    4.769753e-09    9.002150e-13    4.420855e-09    6.312175e-10    1.330000e+00    5.688010e-01    6.231187e-01
    2.335538e+00    2.320277e+02    2.599502e+01    2.025347e+09    4.770871e-09    9.264375e-13    4.425016e-09    6.315090e-10    1.340000e+00    5.688010e-01    6.305693e-01
