# GF180MCU-D nfet_03v3 gm/ID Processed Lookup Table
# Corner: ff
# Temperature: -40C
# W = 2.0 um
# L = 4.5 um (4500 nm)
# Columns: gm/id [1/V]  gm/gds [V/V]  id/W [A/m]  ft [Hz]  Cgg/W [F/m]  Cgd/W [F/m]  Cgs/W [F/m]  Cdb/W [F/m]  vgs [V]  vth [V]  vdsat [V]
# vdsat = BSIM saturation voltage (|VDS|_sat, positive); use for headroom / saturation / cascode-bias calculations
#           gm/id          gm/gds            id/W              ft           Cgg/W           Cgd/W           Cgs/W           Cdb/W             vgs             vth           vdsat
    3.462261e+01    7.234044e+02    5.085385e-05    4.848589e+04    5.779475e-09    1.250148e-15    1.332125e-10    3.227486e-11    3.800000e-01    6.217549e-01    2.906862e-02
    3.460871e+01    7.199818e+02    7.189390e-05    6.848186e+04    5.782585e-09    1.478768e-15    1.651175e-10    3.796041e-11    3.900000e-01    6.217549e-01    2.908495e-02
    3.451226e+01    7.160398e+02    1.015818e-04    9.636622e+04    5.790080e-09    1.748638e-15    2.028607e-10    4.464696e-11    4.000000e-01    6.217549e-01    2.910797e-02
    3.434359e+01    7.115410e+02    1.433380e-04    1.350187e+05    5.802740e-09    2.067219e-15    2.475227e-10    5.251080e-11    4.100000e-01    6.217549e-01    2.914030e-02
    3.410888e+01    7.064669e+02    2.018501e-04    1.882280e+05    5.821465e-09    2.443327e-15    3.003691e-10    6.175595e-11    4.200000e-01    6.217549e-01    2.918548e-02
    3.381158e+01    7.008254e+02    2.834918e-04    2.608975e+05    5.847310e-09    2.887343e-15    3.628681e-10    7.261670e-11    4.300000e-01    6.217549e-01    2.924831e-02
    3.345353e+01    6.946647e+02    3.968518e-04    3.592546e+05    5.881500e-09    3.411460e-15    4.367053e-10    8.535910e-11    4.400000e-01    6.217549e-01    2.933515e-02
    3.303616e+01    6.880852e+02    5.533910e-04    4.910474e+05    5.925410e-09    4.029939e-15    5.237930e-10    1.002821e-10    4.500000e-01    6.217549e-01    2.945430e-02
    3.256129e+01    6.812513e+02    7.682405e-04    6.656950e+05    5.980585e-09    4.759379e-15    6.262730e-10    1.177167e-10    4.600000e-01    6.217549e-01    2.961642e-02
    3.203173e+01    6.743992e+02    1.061158e-03    8.943669e+05    6.048740e-09    5.618995e-15    7.465085e-10    1.380241e-10    4.700000e-01    6.217549e-01    2.983489e-02
    3.145176e+01    6.678378e+02    1.457645e-03    1.189962e+06    6.131740e-09    6.630880e-15    8.870600e-10    1.615905e-10    4.800000e-01    6.217549e-01    3.012611e-02
    3.082703e+01    6.619402e+02    1.990238e-03    1.566970e+06    6.231555e-09    7.820255e-15    1.050643e-09    1.888189e-10    4.900000e-01    6.217549e-01    3.050957e-02
    3.016420e+01    6.571194e+02    2.699977e-03    2.041184e+06    6.350235e-09    9.215655e-15    1.240062e-09    2.201168e-10    5.000000e-01    6.217549e-01    3.100771e-02
    2.947015e+01    6.537957e+02    3.638029e-03    2.629273e+06    6.489825e-09    1.084905e-14    1.458104e-09    2.558790e-10    5.100000e-01    6.217549e-01    3.164542e-02
    2.875106e+01    6.523529e+02    4.867449e-03    3.348157e+06    6.652265e-09    1.275583e-14    1.707413e-09    2.964644e-10    5.200000e-01    6.217549e-01    3.244918e-02
    2.801172e+01    6.530961e+02    6.465000e-03    4.214225e+06    6.839285e-09    1.497469e-14    1.990302e-09    3.421688e-10    5.300000e-01    6.217549e-01    3.344592e-02
    2.725525e+01    6.562173e+02    8.522880e-03    5.242412e+06    7.052215e-09    1.754729e-14    2.308557e-09    3.931917e-10    5.400000e-01    6.217549e-01    3.466167e-02
    2.648333e+01    6.617772e+02    1.115026e-02    6.445236e+06    7.291865e-09    2.051764e-14    2.663202e-09    4.496020e-10    5.500000e-01    6.217549e-01    3.612023e-02
    2.569692e+01    6.697065e+02    1.447436e-02    7.832054e+06    7.558310e-09    2.393138e-14    3.054254e-09    5.113040e-10    5.600000e-01    6.217549e-01    3.784210e-02
    2.489725e+01    6.798220e+02    1.864098e-02    9.408675e+06    7.850760e-09    2.783468e-14    3.480518e-09    5.780100e-10    5.700000e-01    6.217549e-01    3.984367e-02
    2.408632e+01    6.918543e+02    2.381441e-02    1.117751e+07    8.167425e-09    3.227303e-14    3.939423e-09    6.492200e-10    5.800000e-01    6.217549e-01    4.213691e-02
    2.326720e+01    7.054752e+02    3.017658e-02    1.313820e+07    8.505470e-09    3.728982e-14    4.426962e-09    7.242235e-10    5.900000e-01    6.217549e-01    4.472940e-02
    2.244384e+01    7.203213e+02    3.792555e-02    1.528846e+07    8.861055e-09    4.292491e-14    4.937746e-09    8.021140e-10    6.000000e-01    6.217549e-01    4.762462e-02
    2.162061e+01    7.360132e+02    4.727339e-02    1.762496e+07    9.229470e-09    4.921330e-14    5.465205e-09    8.818285e-10    6.100000e-01    6.217549e-01    5.082243e-02
    2.080196e+01    7.521710e+02    5.844325e-02    2.014394e+07    9.605375e-09    5.618395e-14    6.001915e-09    9.622040e-10    6.200000e-01    6.217549e-01    5.431949e-02
    1.999194e+01    7.684212e+02    7.166615e-02    2.284150e+07    9.983080e-09    6.385895e-14    6.540020e-09    1.042043e-09    6.300000e-01    6.217549e-01    5.810978e-02
    1.919420e+01    7.844104e+02    8.717690e-02    2.571347e+07    1.035693e-08    7.225315e-14    7.071700e-09    1.120190e-09    6.400000e-01    6.217549e-01    6.218488e-02
    1.841185e+01    7.998124e+02    1.052099e-01    2.875511e+07    1.072159e-08    8.137415e-14    7.589660e-09    1.195594e-09    6.500000e-01    6.217549e-01    6.653439e-02
    1.764759e+01    8.143387e+02    1.259946e-01    3.196074e+07    1.107237e-08    9.122265e-14    8.087490e-09    1.267364e-09    6.600000e-01    6.217549e-01    7.114613e-02
    1.690372e+01    8.277468e+02    1.497517e-01    3.532337e+07    1.140544e-08    1.017935e-13    8.559970e-09    1.334807e-09    6.700000e-01    6.217549e-01    7.600652e-02
    1.618226e+01    8.398459e+02    1.766888e-01    3.883457e+07    1.171790e-08    1.130763e-13    9.003210e-09    1.397437e-09    6.800000e-01    6.217549e-01    8.110081e-02
    1.548494e+01    8.504995e+02    2.069974e-01    4.248444e+07    1.200783e-08    1.250572e-13    9.414670e-09    1.454974e-09    6.900000e-01    6.217549e-01    8.641347e-02
    1.481323e+01    8.596246e+02    2.408503e-01    4.626170e+07    1.227426e-08    1.377192e-13    9.793100e-09    1.507328e-09    7.000000e-01    6.217549e-01    9.192845e-02
    1.416827e+01    8.671891e+02    2.784006e-01    5.015420e+07    1.251699e-08    1.510444e-13    1.013834e-08    1.554563e-09    7.100000e-01    6.217549e-01    9.762956e-02
    1.355094e+01    8.732050e+02    3.197804e-01    5.414911e+07    1.273650e-08    1.650137e-13    1.045114e-08    1.596873e-09    7.200000e-01    6.217549e-01    1.035008e-01
    1.296176e+01    8.777212e+02    3.651012e-01    5.823344e+07    1.293377e-08    1.796089e-13    1.073296e-08    1.634536e-09    7.300000e-01    6.217549e-01    1.095265e-01
    1.240095e+01    8.808136e+02    4.144552e-01    6.239434e+07    1.311015e-08    1.948125e-13    1.098571e-08    1.667897e-09    7.400000e-01    6.217549e-01    1.156916e-01
    1.186842e+01    8.825817e+02    4.679160e-01    6.661954e+07    1.326720e-08    2.106083e-13    1.121162e-08    1.697326e-09    7.500000e-01    6.217549e-01    1.219821e-01
    1.136381e+01    8.831359e+02    5.255405e-01    7.089754e+07    1.340661e-08    2.269822e-13    1.141307e-08    1.723209e-09    7.600000e-01    6.217549e-01    1.283847e-01
    1.088649e+01    8.825926e+02    5.873710e-01    7.521782e+07    1.353007e-08    2.439218e-13    1.159244e-08    1.745926e-09    7.700000e-01    6.217549e-01    1.348870e-01
    1.043567e+01    8.810711e+02    6.534365e-01    7.957070e+07    1.363925e-08    2.614169e-13    1.175206e-08    1.765837e-09    7.800000e-01    6.217549e-01    1.414781e-01
    1.001035e+01    8.786864e+02    7.237565e-01    8.394788e+07    1.373574e-08    2.794591e-13    1.189416e-08    1.783281e-09    7.900000e-01    6.217549e-01    1.481476e-01
    9.609471e+00    8.755504e+02    7.983400e-01    8.834207e+07    1.382101e-08    2.980424e-13    1.202077e-08    1.798567e-09    8.000000e-01    6.217549e-01    1.548865e-01
    9.231853e+00    8.717633e+02    8.771885e-01    9.274681e+07    1.389642e-08    3.171624e-13    1.213379e-08    1.811975e-09    8.100000e-01    6.217549e-01    1.616866e-01
    8.876282e+00    8.674213e+02    9.602990e-01    9.715680e+07    1.396319e-08    3.368168e-13    1.223490e-08    1.823753e-09    8.200000e-01    6.217549e-01    1.685406e-01
    8.541525e+00    8.626081e+02    1.047663e+00    1.015676e+08    1.402239e-08    3.570046e-13    1.232561e-08    1.834123e-09    8.300000e-01    6.217549e-01    1.754422e-01
    8.226352e+00    8.573987e+02    1.139268e+00    1.059753e+08    1.407501e-08    3.777268e-13    1.240726e-08    1.843276e-09    8.400000e-01    6.217549e-01    1.823856e-01
    7.929561e+00    8.518601e+02    1.235098e+00    1.103769e+08    1.412188e-08    3.989854e-13    1.248102e-08    1.851381e-09    8.500000e-01    6.217549e-01    1.893658e-01
    7.649987e+00    8.460516e+02    1.335138e+00    1.147700e+08    1.416376e-08    4.207842e-13    1.254793e-08    1.858582e-09    8.600000e-01    6.217549e-01    1.963786e-01
    7.386504e+00    8.400224e+02    1.439367e+00    1.191524e+08    1.420129e-08    4.431278e-13    1.260886e-08    1.865005e-09    8.700000e-01    6.217549e-01    2.034201e-01
    7.138038e+00    8.338158e+02    1.547768e+00    1.235226e+08    1.423503e-08    4.660221e-13    1.266460e-08    1.870758e-09    8.800000e-01    6.217549e-01    2.104870e-01
    6.903587e+00    8.274704e+02    1.660321e+00    1.278794e+08    1.426549e-08    4.894742e-13    1.271582e-08    1.875934e-09    8.900000e-01    6.217549e-01    2.175764e-01
    6.682190e+00    8.210166e+02    1.777005e+00    1.322216e+08    1.429306e-08    5.134915e-13    1.276309e-08    1.880613e-09    9.000000e-01    6.217549e-01    2.246859e-01
    6.472963e+00    8.144827e+02    1.897800e+00    1.365488e+08    1.431812e-08    5.380835e-13    1.280691e-08    1.884861e-09    9.100000e-01    6.217549e-01    2.318132e-01
    6.275067e+00    8.078901e+02    2.022686e+00    1.408602e+08    1.434097e-08    5.632585e-13    1.284772e-08    1.888736e-09    9.200000e-01    6.217549e-01    2.389564e-01
    6.087727e+00    8.012584e+02    2.151643e+00    1.451556e+08    1.436190e-08    5.890280e-13    1.288588e-08    1.892290e-09    9.300000e-01    6.217549e-01    2.461141e-01
    5.910219e+00    7.946029e+02    2.284652e+00    1.494345e+08    1.438113e-08    6.154020e-13    1.292171e-08    1.895562e-09    9.400000e-01    6.217549e-01    2.532846e-01
    5.741877e+00    7.879377e+02    2.421693e+00    1.536969e+08    1.439886e-08    6.423930e-13    1.295549e-08    1.898590e-09    9.500000e-01    6.217549e-01    2.604669e-01
    5.582078e+00    7.812729e+02    2.562747e+00    1.579425e+08    1.441527e-08    6.700125e-13    1.298745e-08    1.901404e-09    9.600000e-01    6.217549e-01    2.676599e-01
    5.430250e+00    7.746178e+02    2.707795e+00    1.621715e+08    1.443050e-08    6.982740e-13    1.301780e-08    1.904030e-09    9.700000e-01    6.217549e-01    2.748627e-01
    5.285860e+00    7.679793e+02    2.856820e+00    1.663837e+08    1.444468e-08    7.271905e-13    1.304670e-08    1.906492e-09    9.800000e-01    6.217549e-01    2.820745e-01
    5.148417e+00    7.613636e+02    3.009804e+00    1.705791e+08    1.445793e-08    7.567760e-13    1.307432e-08    1.908807e-09    9.900000e-01    6.217549e-01    2.892947e-01
    5.017468e+00    7.547753e+02    3.166729e+00    1.747579e+08    1.447034e-08    7.870455e-13    1.310079e-08    1.910993e-09    1.000000e+00    6.217549e-01    2.965226e-01
    4.892592e+00    7.482176e+02    3.327577e+00    1.789200e+08    1.448199e-08    8.180140e-13    1.312621e-08    1.913064e-09    1.010000e+00    6.217549e-01    3.037578e-01
    4.773401e+00    7.416939e+02    3.492333e+00    1.830655e+08    1.449296e-08    8.496975e-13    1.315069e-08    1.915032e-09    1.020000e+00    6.217549e-01    3.109999e-01
    4.659540e+00    7.352062e+02    3.660977e+00    1.871944e+08    1.450332e-08    8.821120e-13    1.317432e-08    1.916907e-09    1.030000e+00    6.217549e-01    3.182484e-01
    4.550673e+00    7.287559e+02    3.833496e+00    1.913068e+08    1.451310e-08    9.152740e-13    1.319716e-08    1.918698e-09    1.040000e+00    6.217549e-01    3.255032e-01
    4.446495e+00    7.223445e+02    4.009872e+00    1.954027e+08    1.452238e-08    9.492015e-13    1.321930e-08    1.920414e-09    1.050000e+00    6.217549e-01    3.327639e-01
    4.346720e+00    7.159722e+02    4.190088e+00    1.994822e+08    1.453118e-08    9.839115e-13    1.324078e-08    1.922061e-09    1.060000e+00    6.217549e-01    3.400303e-01
    4.251087e+00    7.096398e+02    4.374129e+00    2.035452e+08    1.453955e-08    1.019424e-12    1.326165e-08    1.923646e-09    1.070000e+00    6.217549e-01    3.473023e-01
    4.159351e+00    7.033472e+02    4.561979e+00    2.075918e+08    1.454752e-08    1.055756e-12    1.328196e-08    1.925173e-09    1.080000e+00    6.217549e-01    3.545796e-01
    4.071285e+00    6.970945e+02    4.753621e+00    2.116219e+08    1.455511e-08    1.092929e-12    1.330177e-08    1.926647e-09    1.090000e+00    6.217549e-01    3.618622e-01
    3.986678e+00    6.908813e+02    4.949040e+00    2.156357e+08    1.456235e-08    1.130962e-12    1.332108e-08    1.928072e-09    1.100000e+00    6.217549e-01    3.691499e-01
    3.905336e+00    6.847072e+02    5.148220e+00    2.196330e+08    1.456928e-08    1.169876e-12    1.333995e-08    1.929451e-09    1.110000e+00    6.217549e-01    3.764427e-01
    3.827078e+00    6.785720e+02    5.351145e+00    2.236138e+08    1.457591e-08    1.209693e-12    1.335839e-08    1.930789e-09    1.120000e+00    6.217549e-01    3.837405e-01
    3.751734e+00    6.724751e+02    5.557800e+00    2.275782e+08    1.458224e-08    1.250435e-12    1.337644e-08    1.932087e-09    1.130000e+00    6.217549e-01    3.910431e-01
    3.679144e+00    6.664156e+02    5.768170e+00    2.315260e+08    1.458832e-08    1.292123e-12    1.339411e-08    1.933348e-09    1.140000e+00    6.217549e-01    3.983507e-01
    3.609167e+00    6.603930e+02    5.982235e+00    2.354571e+08    1.459415e-08    1.334783e-12    1.341144e-08    1.934575e-09    1.150000e+00    6.217549e-01    4.056630e-01
    3.541664e+00    6.544066e+02    6.199980e+00    2.393717e+08    1.459973e-08    1.378437e-12    1.342843e-08    1.935769e-09    1.160000e+00    6.217549e-01    4.129802e-01
    3.476506e+00    6.484557e+02    6.421390e+00    2.432694e+08    1.460511e-08    1.423110e-12    1.344510e-08    1.936932e-09    1.170000e+00    6.217549e-01    4.203022e-01
    3.413572e+00    6.425397e+02    6.646455e+00    2.471504e+08    1.461026e-08    1.468828e-12    1.346147e-08    1.938066e-09    1.180000e+00    6.217549e-01    4.276290e-01
    3.352753e+00    6.366577e+02    6.875150e+00    2.510145e+08    1.461521e-08    1.515617e-12    1.347757e-08    1.939173e-09    1.190000e+00    6.217549e-01    4.349606e-01
    3.293946e+00    6.308092e+02    7.107460e+00    2.548616e+08    1.461997e-08    1.563504e-12    1.349339e-08    1.940253e-09    1.200000e+00    6.217549e-01    4.422970e-01
    3.237048e+00    6.249932e+02    7.343375e+00    2.586917e+08    1.462455e-08    1.612516e-12    1.350895e-08    1.941309e-09    1.210000e+00    6.217549e-01    4.496382e-01
    3.181972e+00    6.192093e+02    7.582875e+00    2.625046e+08    1.462896e-08    1.662683e-12    1.352426e-08    1.942340e-09    1.220000e+00    6.217549e-01    4.569842e-01
    3.128631e+00    6.134568e+02    7.825940e+00    2.663003e+08    1.463320e-08    1.714032e-12    1.353935e-08    1.943349e-09    1.230000e+00    6.217549e-01    4.643351e-01
    3.076941e+00    6.077348e+02    8.072560e+00    2.700786e+08    1.463728e-08    1.766596e-12    1.355420e-08    1.944337e-09    1.240000e+00    6.217549e-01    4.716908e-01
    3.026831e+00    6.020430e+02    8.322710e+00    2.738395e+08    1.464121e-08    1.820404e-12    1.356884e-08    1.945304e-09    1.250000e+00    6.217549e-01    4.790513e-01
    2.978226e+00    5.963807e+02    8.576380e+00    2.775829e+08    1.464499e-08    1.875488e-12    1.358327e-08    1.946251e-09    1.260000e+00    6.217549e-01    4.864168e-01
    2.931059e+00    5.907472e+02    8.833555e+00    2.813086e+08    1.464864e-08    1.931882e-12    1.359749e-08    1.947179e-09    1.270000e+00    6.217549e-01    4.937872e-01
    2.885268e+00    5.851419e+02    9.094210e+00    2.850166e+08    1.465215e-08    1.989619e-12    1.361153e-08    1.948088e-09    1.280000e+00    6.217549e-01    5.011626e-01
    2.840794e+00    5.795646e+02    9.358330e+00    2.887067e+08    1.465552e-08    2.048736e-12    1.362538e-08    1.948980e-09    1.290000e+00    6.217549e-01    5.085430e-01
    2.797577e+00    5.740144e+02    9.625905e+00    2.923789e+08    1.465878e-08    2.109266e-12    1.363905e-08    1.949856e-09    1.300000e+00    6.217549e-01    5.159283e-01
    2.755568e+00    5.684909e+02    9.896910e+00    2.960330e+08    1.466192e-08    2.171247e-12    1.365255e-08    1.950714e-09    1.310000e+00    6.217549e-01    5.233188e-01
    2.714714e+00    5.629938e+02    1.017133e+01    2.996689e+08    1.466494e-08    2.234717e-12    1.366588e-08    1.951558e-09    1.320000e+00    6.217549e-01    5.307143e-01
    2.674969e+00    5.575227e+02    1.044915e+01    3.032867e+08    1.466785e-08    2.299716e-12    1.367906e-08    1.952387e-09    1.330000e+00    6.217549e-01    5.381150e-01
    2.636286e+00    5.520768e+02    1.073035e+01    3.068860e+08    1.467066e-08    2.366283e-12    1.369208e-08    1.953201e-09    1.340000e+00    6.217549e-01    5.455208e-01
    2.598625e+00    5.466555e+02    1.101491e+01    3.104669e+08    1.467336e-08    2.434462e-12    1.370495e-08    1.954001e-09    1.350000e+00    6.217549e-01    5.529319e-01
    2.561945e+00    5.412593e+02    1.130282e+01    3.140291e+08    1.467596e-08    2.504293e-12    1.371768e-08    1.954787e-09    1.360000e+00    6.217549e-01    5.603482e-01
    2.526206e+00    5.358874e+02    1.159404e+01    3.175728e+08    1.467847e-08    2.575822e-12    1.373027e-08    1.955560e-09    1.370000e+00    6.217549e-01    5.677697e-01
    2.491374e+00    5.305386e+02    1.188859e+01    3.210978e+08    1.468088e-08    2.649095e-12    1.374272e-08    1.956322e-09    1.380000e+00    6.217549e-01    5.751966e-01
    2.457412e+00    5.252142e+02    1.218642e+01    3.246038e+08    1.468320e-08    2.724156e-12    1.375504e-08    1.957070e-09    1.390000e+00    6.217549e-01    5.826289e-01
    2.424290e+00    5.199124e+02    1.248753e+01    3.280909e+08    1.468544e-08    2.801057e-12    1.376723e-08    1.957807e-09    1.400000e+00    6.217549e-01    5.900666e-01
    2.391976e+00    5.146339e+02    1.279188e+01    3.315590e+08    1.468759e-08    2.879845e-12    1.377930e-08    1.958532e-09    1.410000e+00    6.217549e-01    5.975097e-01
    2.360439e+00    5.093775e+02    1.309948e+01    3.350079e+08    1.468966e-08    2.960572e-12    1.379125e-08    1.959247e-09    1.420000e+00    6.217549e-01    6.049583e-01
    2.329653e+00    5.041438e+02    1.341029e+01    3.384377e+08    1.469165e-08    3.043292e-12    1.380309e-08    1.959951e-09    1.430000e+00    6.217549e-01    6.124125e-01
    2.299590e+00    4.989317e+02    1.372429e+01    3.418482e+08    1.469357e-08    3.128059e-12    1.381481e-08    1.960644e-09    1.440000e+00    6.217549e-01    6.198722e-01
    2.270224e+00    4.937417e+02    1.404148e+01    3.452393e+08    1.469541e-08    3.214929e-12    1.382642e-08    1.961328e-09    1.450000e+00    6.217549e-01    6.273376e-01
    2.241532e+00    4.885730e+02    1.436183e+01    3.486110e+08    1.469718e-08    3.303959e-12    1.383793e-08    1.962002e-09    1.460000e+00    6.217549e-01    6.348086e-01
