# GF180MCU-D nfet_03v3 gm/ID Processed Lookup Table
# Corner: ff
# Temperature: -40C
# W = 2.0 um
# L = 6 um (6000 nm)
# Columns: gm/id [1/V]  gm/gds [V/V]  id/W [A/m]  ft [Hz]  Cgg/W [F/m]  Cgd/W [F/m]  Cgs/W [F/m]  Cdb/W [F/m]  vgs [V]  vth [V]  vdsat [V]
# vdsat = BSIM saturation voltage (|VDS|_sat, positive); use for headroom / saturation / cascode-bias calculations
#           gm/id          gm/gds            id/W              ft           Cgg/W           Cgd/W           Cgs/W           Cdb/W             vgs             vth           vdsat
    3.444936e+01    7.914292e+02    5.941140e-05    4.207472e+04    7.741940e-09    2.146473e-15    2.444223e-10    5.510280e-11    3.900000e-01    6.190785e-01    2.865486e-02
    3.436410e+01    7.868583e+02    8.381635e-05    5.911105e+04    7.755060e-09    2.537222e-15    2.990896e-10    6.479405e-11    4.000000e-01    6.190785e-01    2.868028e-02
    3.419778e+01    7.816617e+02    1.180968e-04    8.266497e+04    7.775610e-09    2.998407e-15    3.637655e-10    7.618750e-11    4.100000e-01    6.190785e-01    2.871593e-02
    3.395871e+01    7.758290e+02    1.660597e-04    1.149922e+05    7.804900e-09    3.542738e-15    4.402620e-10    8.957470e-11    4.200000e-01    6.190785e-01    2.876567e-02
    3.365193e+01    7.693819e+02    2.328649e-04    1.589911e+05    7.844430e-09    4.185166e-15    5.306695e-10    1.052887e-10    4.300000e-01    6.190785e-01    2.883468e-02
    3.328074e+01    7.623933e+02    3.254399e-04    2.183139e+05    7.895915e-09    4.943209e-15    6.373745e-10    1.237055e-10    4.400000e-01    6.190785e-01    2.892982e-02
    3.284784e+01    7.549992e+02    4.529918e-04    2.974632e+05    7.961300e-09    5.837300e-15    7.630665e-10    1.452449e-10    4.500000e-01    6.190785e-01    2.905997e-02
    3.235619e+01    7.474086e+02    6.276260e-04    4.018591e+05    8.042750e-09    6.891160e-15    9.107365e-10    1.703683e-10    4.600000e-01    6.190785e-01    2.923645e-02
    3.180974e+01    7.399123e+02    8.650790e-04    5.378626e+05    8.142630e-09    8.132160e-15    1.083655e-09    1.995744e-10    4.700000e-01    6.190785e-01    2.947335e-02
    3.121381e+01    7.328800e+02    1.185571e-03    7.127394e+05    8.263495e-09    9.591645e-15    1.285334e-09    2.333907e-10    4.800000e-01    6.190785e-01    2.978775e-02
    3.057483e+01    7.267446e+02    1.614788e-03    9.345568e+05    8.408025e-09    1.130525e-14    1.519450e-09    2.723596e-10    4.900000e-01    6.190785e-01    3.019972e-02
    2.990001e+01    7.219735e+02    2.184981e-03    1.212008e+06    8.578940e-09    1.331310e-14    1.789737e-09    3.170196e-10    5.000000e-01    6.190785e-01    3.073208e-02
    2.919633e+01    7.190236e+02    2.936189e-03    1.554146e+06    8.778910e-09    1.565988e-14    2.099830e-09    3.678782e-10    5.100000e-01    6.190785e-01    3.140977e-02
    2.846987e+01    7.183001e+02    3.917537e-03    1.970039e+06    9.010395e-09    1.839481e-14    2.453063e-09    4.253788e-10    5.200000e-01    6.190785e-01    3.225890e-02
    2.772506e+01    7.201057e+02    5.188550e-03    2.468326e+06    9.275475e-09    2.157125e-14    2.852214e-09    4.898602e-10    5.300000e-01    6.190785e-01    3.330559e-02
    2.696469e+01    7.246120e+02    6.820395e-03    3.056743e+06    9.575605e-09    2.524621e-14    3.299213e-09    5.615115e-10    5.400000e-01    6.190785e-01    3.457464e-02
    2.619025e+01    7.318451e+02    8.896920e-03    3.741651e+06    9.911430e-09    2.947937e-14    3.794825e-09    6.403265e-10    5.500000e-01    6.190785e-01    3.608830e-02
    2.540281e+01    7.416947e+02    1.151537e-02    4.527722e+06    1.028253e-08    3.433195e-14    4.338347e-09    7.260605e-10    5.600000e-01    6.190785e-01    3.786535e-02
    2.460380e+01    7.539347e+02    1.478668e-02    5.417845e+06    1.068726e-08    3.986514e-14    4.927352e-09    8.181990e-10    5.700000e-01    6.190785e-01    3.992048e-02
    2.379548e+01    7.682535e+02    1.883528e-02    6.413296e+06    1.112257e-08    4.613834e-14    5.557535e-09    9.159430e-10    5.800000e-01    6.190785e-01    4.226415e-02
    2.298110e+01    7.842838e+02    2.379843e-02    7.514098e+06    1.158410e-08    5.320730e-14    6.222695e-09    1.018219e-09    5.900000e-01    6.190785e-01    4.490264e-02
    2.216450e+01    8.016219e+02    2.982506e-02    8.719478e+06    1.206616e-08    6.112230e-14    6.914900e-09    1.123713e-09    6.000000e-01    6.190785e-01    4.783851e-02
    2.134986e+01    8.198529e+02    3.707411e-02    1.002824e+07    1.256206e-08    6.992620e-14    7.624840e-09    1.230936e-09    6.100000e-01    6.190785e-01    5.107095e-02
    2.054119e+01    8.385575e+02    4.571237e-02    1.143899e+07    1.306448e-08    7.965355e-14    8.342305e-09    1.338304e-09    6.200000e-01    6.190785e-01    5.459624e-02
    1.974217e+01    8.573255e+02    5.591190e-02    1.295012e+07    1.356580e-08    9.032930e-14    9.056810e-09    1.444235e-09    6.300000e-01    6.190785e-01    5.840814e-02
    1.895601e+01    8.757687e+02    6.784715e-02    1.455978e+07    1.405866e-08    1.019688e-13    9.758210e-09    1.547242e-09    6.400000e-01    6.190785e-01    6.249821e-02
    1.818553e+01    8.935299e+02    8.169165e-02    1.626552e+07    1.453636e-08    1.145778e-13    1.043730e-08    1.646014e-09    6.500000e-01    6.190785e-01    6.685608e-02
    1.743316e+01    9.102953e+02    9.761490e-02    1.806423e+07    1.499316e-08    1.281537e-13    1.108625e-08    1.739478e-09    6.600000e-01    6.190785e-01    7.146973e-02
    1.670108e+01    9.258022e+02    1.157791e-01    1.995188e+07    1.542450e-08    1.426862e-13    1.169890e-08    1.826835e-09    6.700000e-01    6.190785e-01    7.632574e-02
    1.599117e+01    9.398460e+02    1.363366e-01    2.192353e+07    1.582714e-08    1.581593e-13    1.227091e-08    1.907562e-09    6.800000e-01    6.190785e-01    8.140965e-02
    1.530513e+01    9.522835e+02    1.594273e-01    2.397336e+07    1.619911e-08    1.745525e-13    1.279969e-08    1.981405e-09    6.900000e-01    6.190785e-01    8.670620e-02
    1.464437e+01    9.630292e+02    1.851775e-01    2.609481e+07    1.653960e-08    1.918426e-13    1.328427e-08    2.048342e-09    7.000000e-01    6.190785e-01    9.219972e-02
    1.401003e+01    9.720535e+02    2.136982e-01    2.828080e+07    1.684878e-08    2.100048e-13    1.372500e-08    2.108540e-09    7.100000e-01    6.190785e-01    9.787444e-02
    1.340295e+01    9.793743e+02    2.450855e-01    3.052399e+07    1.712761e-08    2.290143e-13    1.412335e-08    2.162313e-09    7.200000e-01    6.190785e-01    1.037147e-01
    1.282364e+01    9.850488e+02    2.794203e-01    3.281699e+07    1.737763e-08    2.488473e-13    1.448154e-08    2.210077e-09    7.300000e-01    6.190785e-01    1.097055e-01
    1.227229e+01    9.891639e+02    3.167693e-01    3.515257e+07    1.760077e-08    2.694810e-13    1.480234e-08    2.252310e-09    7.400000e-01    6.190785e-01    1.158321e-01
    1.174880e+01    9.918287e+02    3.571858e-01    3.752385e+07    1.779919e-08    2.908954e-13    1.508880e-08    2.289519e-09    7.500000e-01    6.190785e-01    1.220810e-01
    1.125277e+01    9.931643e+02    4.007114e-01    3.992445e+07    1.797515e-08    3.130725e-13    1.534411e-08    2.322216e-09    7.600000e-01    6.190785e-01    1.284393e-01
    1.078361e+01    9.932994e+02    4.473769e-01    4.234854e+07    1.813090e-08    3.359971e-13    1.557142e-08    2.350898e-09    7.700000e-01    6.190785e-01    1.348953e-01
    1.034047e+01    9.923623e+02    4.972041e-01    4.479093e+07    1.826860e-08    3.596569e-13    1.577376e-08    2.376035e-09    7.800000e-01    6.190785e-01    1.414382e-01
    9.922402e+00    9.904796e+02    5.502070e-01    4.724700e+07    1.839030e-08    3.840421e-13    1.595399e-08    2.398061e-09    7.900000e-01    6.190785e-01    1.480583e-01
    9.528310e+00    9.877698e+02    6.063935e-01    4.971280e+07    1.849790e-08    4.091456e-13    1.611475e-08    2.417371e-09    8.000000e-01    6.190785e-01    1.547469e-01
    9.157060e+00    9.843447e+02    6.657650e-01    5.218499e+07    1.859309e-08    4.349628e-13    1.625841e-08    2.434321e-09    8.100000e-01    6.190785e-01    1.614960e-01
    8.807415e+00    9.803041e+02    7.283210e-01    5.466056e+07    1.867744e-08    4.614915e-13    1.638712e-08    2.449226e-09    8.200000e-01    6.190785e-01    1.682988e-01
    8.478186e+00    9.757397e+02    7.940555e-01    5.713719e+07    1.875232e-08    4.887315e-13    1.650278e-08    2.462364e-09    8.300000e-01    6.190785e-01    1.751491e-01
    8.168162e+00    9.707346e+02    8.629610e-01    5.961295e+07    1.881894e-08    5.166845e-13    1.660708e-08    2.473976e-09    8.400000e-01    6.190785e-01    1.820415e-01
    7.876144e+00    9.653577e+02    9.350280e-01    6.208606e+07    1.887836e-08    5.453550e-13    1.670150e-08    2.484274e-09    8.500000e-01    6.190785e-01    1.889712e-01
    7.600999e+00    9.596734e+02    1.010245e+00    6.455535e+07    1.893152e-08    5.747480e-13    1.678730e-08    2.493439e-09    8.600000e-01    6.190785e-01    1.959341e-01
    7.341626e+00    9.537369e+02    1.088601e+00    6.701972e+07    1.897924e-08    6.048700e-13    1.686562e-08    2.501630e-09    8.700000e-01    6.190785e-01    2.029265e-01
    7.096972e+00    9.475939e+02    1.170084e+00    6.947833e+07    1.902220e-08    6.357305e-13    1.693742e-08    2.508980e-09    8.800000e-01    6.190785e-01    2.099452e-01
    6.866049e+00    9.412842e+02    1.254678e+00    7.193049e+07    1.906103e-08    6.673385e-13    1.700354e-08    2.515606e-09    8.900000e-01    6.190785e-01    2.169876e-01
    6.647927e+00    9.348437e+02    1.342373e+00    7.437579e+07    1.909624e-08    6.997050e-13    1.706470e-08    2.521607e-09    9.000000e-01    6.190785e-01    2.240512e-01
    6.441735e+00    9.283014e+02    1.433153e+00    7.681383e+07    1.912830e-08    7.328420e-13    1.712153e-08    2.527067e-09    9.100000e-01    6.190785e-01    2.311339e-01
    6.246650e+00    9.216806e+02    1.527008e+00    7.924429e+07    1.915758e-08    7.667630e-13    1.717455e-08    2.532058e-09    9.200000e-01    6.190785e-01    2.382340e-01
    6.061919e+00    9.150028e+02    1.623923e+00    8.166704e+07    1.918443e-08    8.014820e-13    1.722424e-08    2.536643e-09    9.300000e-01    6.190785e-01    2.453499e-01
    5.886835e+00    9.082856e+02    1.723886e+00    8.408188e+07    1.920915e-08    8.370140e-13    1.727098e-08    2.540875e-09    9.400000e-01    6.190785e-01    2.524802e-01
    5.720740e+00    9.015423e+02    1.826883e+00    8.648873e+07    1.923197e-08    8.733745e-13    1.731513e-08    2.544797e-09    9.500000e-01    6.190785e-01    2.596238e-01
    5.563034e+00    8.947865e+02    1.932904e+00    8.888761e+07    1.925311e-08    9.105805e-13    1.735697e-08    2.548448e-09    9.600000e-01    6.190785e-01    2.667797e-01
    5.413146e+00    8.880256e+02    2.041936e+00    9.127837e+07    1.927277e-08    9.486490e-13    1.739677e-08    2.551862e-09    9.700000e-01    6.190785e-01    2.739470e-01
    5.270566e+00    8.812702e+02    2.153966e+00    9.366115e+07    1.929109e-08    9.875990e-13    1.743474e-08    2.555067e-09    9.800000e-01    6.190785e-01    2.811250e-01
    5.134807e+00    8.745248e+02    2.268984e+00    9.603582e+07    1.930823e-08    1.027449e-12    1.747107e-08    2.558086e-09    9.900000e-01    6.190785e-01    2.883131e-01
    5.005427e+00    8.677953e+02    2.386978e+00    9.840246e+07    1.932430e-08    1.068220e-12    1.750593e-08    2.560941e-09    1.000000e+00    6.190785e-01    2.955106e-01
    4.882017e+00    8.610863e+02    2.507937e+00    1.007611e+08    1.933940e-08    1.109930e-12    1.753946e-08    2.563647e-09    1.010000e+00    6.190785e-01    3.027172e-01
    4.764196e+00    8.544004e+02    2.631850e+00    1.031117e+08    1.935365e-08    1.152603e-12    1.757179e-08    2.566224e-09    1.020000e+00    6.190785e-01    3.099323e-01
    4.651611e+00    8.477402e+02    2.758706e+00    1.054544e+08    1.936709e-08    1.196260e-12    1.760302e-08    2.568681e-09    1.030000e+00    6.190785e-01    3.171558e-01
    4.543939e+00    8.411077e+02    2.888495e+00    1.077891e+08    1.937981e-08    1.240923e-12    1.763325e-08    2.571031e-09    1.040000e+00    6.190785e-01    3.243872e-01
    4.440881e+00    8.345044e+02    3.021206e+00    1.101159e+08    1.939187e-08    1.286615e-12    1.766257e-08    2.573284e-09    1.050000e+00    6.190785e-01    3.316263e-01
    4.342155e+00    8.279306e+02    3.156828e+00    1.124346e+08    1.940332e-08    1.333362e-12    1.769104e-08    2.575450e-09    1.060000e+00    6.190785e-01    3.388729e-01
    4.247504e+00    8.213873e+02    3.295351e+00    1.147455e+08    1.941422e-08    1.381187e-12    1.771873e-08    2.577534e-09    1.070000e+00    6.190785e-01    3.461269e-01
    4.156690e+00    8.148750e+02    3.436764e+00    1.170484e+08    1.942460e-08    1.430117e-12    1.774571e-08    2.579543e-09    1.080000e+00    6.190785e-01    3.533880e-01
    4.069490e+00    8.083933e+02    3.581059e+00    1.193433e+08    1.943450e-08    1.480178e-12    1.777201e-08    2.581484e-09    1.090000e+00    6.190785e-01    3.606562e-01
    3.985698e+00    8.019425e+02    3.728223e+00    1.216303e+08    1.944395e-08    1.531398e-12    1.779769e-08    2.583363e-09    1.100000e+00    6.190785e-01    3.679313e-01
    3.905122e+00    7.955218e+02    3.878247e+00    1.239093e+08    1.945299e-08    1.583804e-12    1.782279e-08    2.585182e-09    1.110000e+00    6.190785e-01    3.752133e-01
    3.827584e+00    7.891311e+02    4.031120e+00    1.261803e+08    1.946163e-08    1.637424e-12    1.784734e-08    2.586947e-09    1.120000e+00    6.190785e-01    3.825020e-01
    3.752919e+00    7.827696e+02    4.186832e+00    1.284432e+08    1.946991e-08    1.692290e-12    1.787137e-08    2.588660e-09    1.130000e+00    6.190785e-01    3.897975e-01
    3.680971e+00    7.764373e+02    4.345373e+00    1.306979e+08    1.947784e-08    1.748431e-12    1.789493e-08    2.590325e-09    1.140000e+00    6.190785e-01    3.970997e-01
    3.611596e+00    7.701328e+02    4.506732e+00    1.329446e+08    1.948545e-08    1.805879e-12    1.791802e-08    2.591946e-09    1.150000e+00    6.190785e-01    4.044085e-01
    3.544661e+00    7.638564e+02    4.670899e+00    1.351831e+08    1.949275e-08    1.864666e-12    1.794068e-08    2.593523e-09    1.160000e+00    6.190785e-01    4.117239e-01
    3.480040e+00    7.576067e+02    4.837864e+00    1.374133e+08    1.949976e-08    1.924826e-12    1.796293e-08    2.595061e-09    1.170000e+00    6.190785e-01    4.190459e-01
    3.417615e+00    7.513832e+02    5.007615e+00    1.396352e+08    1.950650e-08    1.986392e-12    1.798479e-08    2.596561e-09    1.180000e+00    6.190785e-01    4.263745e-01
    3.357278e+00    7.451852e+02    5.180140e+00    1.418488e+08    1.951297e-08    2.049402e-12    1.800628e-08    2.598024e-09    1.190000e+00    6.190785e-01    4.337096e-01
    3.298922e+00    7.390122e+02    5.355435e+00    1.440539e+08    1.951920e-08    2.113888e-12    1.802742e-08    2.599454e-09    1.200000e+00    6.190785e-01    4.410514e-01
    3.242457e+00    7.328633e+02    5.533480e+00    1.462506e+08    1.952518e-08    2.179891e-12    1.804821e-08    2.600850e-09    1.210000e+00    6.190785e-01    4.483998e-01
    3.187788e+00    7.267380e+02    5.714270e+00    1.484387e+08    1.953094e-08    2.247448e-12    1.806869e-08    2.602216e-09    1.220000e+00    6.190785e-01    4.557547e-01
    3.134831e+00    7.206356e+02    5.897795e+00    1.506182e+08    1.953648e-08    2.316598e-12    1.808886e-08    2.603552e-09    1.230000e+00    6.190785e-01    4.631163e-01
    3.083508e+00    7.145554e+02    6.084040e+00    1.527891e+08    1.954182e-08    2.387382e-12    1.810873e-08    2.604860e-09    1.240000e+00    6.190785e-01    4.704844e-01
    3.033743e+00    7.084969e+02    6.272995e+00    1.549511e+08    1.954695e-08    2.459843e-12    1.812831e-08    2.606141e-09    1.250000e+00    6.190785e-01    4.778593e-01
    2.985466e+00    7.024595e+02    6.464650e+00    1.571044e+08    1.955190e-08    2.534022e-12    1.814763e-08    2.607396e-09    1.260000e+00    6.190785e-01    4.852408e-01
    2.938612e+00    6.964427e+02    6.658990e+00    1.592487e+08    1.955667e-08    2.609966e-12    1.816667e-08    2.608625e-09    1.270000e+00    6.190785e-01    4.926289e-01
    2.893116e+00    6.904457e+02    6.856010e+00    1.613841e+08    1.956126e-08    2.687719e-12    1.818547e-08    2.609831e-09    1.280000e+00    6.190785e-01    5.000238e-01
    2.848923e+00    6.844683e+02    7.055690e+00    1.635104e+08    1.956568e-08    2.767328e-12    1.820403e-08    2.611013e-09    1.290000e+00    6.190785e-01    5.074255e-01
    2.805972e+00    6.785099e+02    7.258030e+00    1.656277e+08    1.956993e-08    2.848842e-12    1.822235e-08    2.612174e-09    1.300000e+00    6.190785e-01    5.148339e-01
    2.764216e+00    6.725699e+02    7.463005e+00    1.677358e+08    1.957403e-08    2.932310e-12    1.824045e-08    2.613314e-09    1.310000e+00    6.190785e-01    5.222491e-01
    2.723603e+00    6.666481e+02    7.670610e+00    1.698345e+08    1.957798e-08    3.017784e-12    1.825834e-08    2.614432e-09    1.320000e+00    6.190785e-01    5.296711e-01
    2.684086e+00    6.607439e+02    7.880835e+00    1.719240e+08    1.958179e-08    3.105316e-12    1.827600e-08    2.615531e-09    1.330000e+00    6.190785e-01    5.371000e-01
    2.645620e+00    6.548568e+02    8.093665e+00    1.740040e+08    1.958545e-08    3.194962e-12    1.829347e-08    2.616611e-09    1.340000e+00    6.190785e-01    5.445357e-01
    2.608166e+00    6.489867e+02    8.309085e+00    1.760746e+08    1.958898e-08    3.286777e-12    1.831075e-08    2.617673e-09    1.350000e+00    6.190785e-01    5.519784e-01
    2.571681e+00    6.431330e+02    8.527090e+00    1.781357e+08    1.959238e-08    3.380819e-12    1.832783e-08    2.618716e-09    1.360000e+00    6.190785e-01    5.594281e-01
    2.536130e+00    6.372957e+02    8.747660e+00    1.801871e+08    1.959566e-08    3.477147e-12    1.834472e-08    2.619743e-09    1.370000e+00    6.190785e-01    5.668847e-01
    2.501474e+00    6.314740e+02    8.970790e+00    1.822289e+08    1.959880e-08    3.575823e-12    1.836145e-08    2.620753e-09    1.380000e+00    6.190785e-01    5.743484e-01
    2.467681e+00    6.256678e+02    9.196460e+00    1.842608e+08    1.960184e-08    3.676911e-12    1.837800e-08    2.621747e-09    1.390000e+00    6.190785e-01    5.818191e-01
    2.434718e+00    6.198768e+02    9.424665e+00    1.862830e+08    1.960476e-08    3.780473e-12    1.839437e-08    2.622725e-09    1.400000e+00    6.190785e-01    5.892969e-01
    2.402557e+00    6.141010e+02    9.655385e+00    1.882954e+08    1.960757e-08    3.886581e-12    1.841060e-08    2.623689e-09    1.410000e+00    6.190785e-01    5.967819e-01
    2.371165e+00    6.083397e+02    9.888610e+00    1.902977e+08    1.961027e-08    3.995299e-12    1.842665e-08    2.624638e-09    1.420000e+00    6.190785e-01    6.042740e-01
    2.340516e+00    6.025927e+02    1.012433e+01    1.922900e+08    1.961288e-08    4.106703e-12    1.844257e-08    2.625573e-09    1.430000e+00    6.190785e-01    6.117734e-01
    2.310583e+00    5.968602e+02    1.036253e+01    1.942724e+08    1.961537e-08    4.220863e-12    1.845832e-08    2.626495e-09    1.440000e+00    6.190785e-01    6.192800e-01
    2.281342e+00    5.911415e+02    1.060320e+01    1.962445e+08    1.961777e-08    4.337857e-12    1.847394e-08    2.627403e-09    1.450000e+00    6.190785e-01    6.267939e-01
    2.252768e+00    5.854368e+02    1.084631e+01    1.982065e+08    1.962009e-08    4.457762e-12    1.848943e-08    2.628299e-09    1.460000e+00    6.190785e-01    6.343151e-01
    2.224838e+00    5.797455e+02    1.109187e+01    2.001582e+08    1.962230e-08    4.580659e-12    1.850477e-08    2.629182e-09    1.470000e+00    6.190785e-01    6.418436e-01
