# GF180MCU-D pfet_03v3 gm/ID Processed Lookup Table
# Corner: ff
# Temperature: 85C
# W = 2.0 um
# L = 4.5 um (4500 nm)
# Columns: gm/id [1/V]  gm/gds [V/V]  id/W [A/m]  ft [Hz]  Cgg/W [F/m]  Cgd/W [F/m]  Cgs/W [F/m]  Cdb/W [F/m]  vgs [V]  vth [V]  vdsat [V]
# vdsat = BSIM saturation voltage (|VDS|_sat, positive); use for headroom / saturation / cascode-bias calculations
#           gm/id          gm/gds            id/W              ft           Cgg/W           Cgd/W           Cgs/W           Cdb/W             vgs             vth           vdsat
    5.284296e-01    2.449879e+00    1.481950e+01    7.934825e+07    1.570738e-08    5.971450e-10    1.550076e-08    2.635347e-09   -3.300000e+00    5.882544e-01    2.096523e+00
    5.324155e-01    2.498775e+00    1.474120e+01    7.957220e+07    1.569792e-08    5.774925e-10    1.550207e-08    2.634864e-09   -3.290000e+00    5.882544e-01    2.087795e+00
    5.364557e-01    2.549478e+00    1.466254e+01    7.979479e+07    1.568876e-08    5.584040e-10    1.550306e-08    2.634362e-09   -3.280000e+00    5.882544e-01    2.079077e+00
    5.405416e-01    2.602086e+00    1.458379e+01    8.001609e+07    1.567987e-08    5.398715e-10    1.550372e-08    2.633841e-09   -3.270000e+00    5.882544e-01    2.070368e+00
    5.446769e-01    2.656702e+00    1.450488e+01    8.023598e+07    1.567126e-08    5.218870e-10    1.550409e-08    2.633301e-09   -3.260000e+00    5.882544e-01    2.061670e+00
    5.488622e-01    2.713438e+00    1.442578e+01    8.045441e+07    1.566293e-08    5.044420e-10    1.550415e-08    2.632744e-09   -3.250000e+00    5.882544e-01    2.052981e+00
    5.530982e-01    2.772416e+00    1.434652e+01    8.067144e+07    1.565486e-08    4.875271e-10    1.550390e-08    2.632170e-09   -3.240000e+00    5.882544e-01    2.044302e+00
    5.573856e-01    2.833761e+00    1.426708e+01    8.088691e+07    1.564706e-08    4.711329e-10    1.550337e-08    2.631580e-09   -3.230000e+00    5.882544e-01    2.035633e+00
    5.617250e-01    2.897615e+00    1.418747e+01    8.110086e+07    1.563953e-08    4.552493e-10    1.550254e-08    2.630974e-09   -3.220000e+00    5.882544e-01    2.026974e+00
    5.661175e-01    2.964125e+00    1.410769e+01    8.131324e+07    1.563224e-08    4.398661e-10    1.550144e-08    2.630353e-09   -3.210000e+00    5.882544e-01    2.018325e+00
    5.705627e-01    3.033450e+00    1.402774e+01    8.152392e+07    1.562522e-08    4.249727e-10    1.550007e-08    2.629720e-09   -3.200000e+00    5.882544e-01    2.009686e+00
    5.750619e-01    3.105764e+00    1.394762e+01    8.173298e+07    1.561844e-08    4.105584e-10    1.549843e-08    2.629072e-09   -3.190000e+00    5.882544e-01    2.001057e+00
    5.796158e-01    3.181250e+00    1.386733e+01    8.194024e+07    1.561190e-08    3.966122e-10    1.549653e-08    2.628412e-09   -3.180000e+00    5.882544e-01    1.992437e+00
    5.842245e-01    3.260110e+00    1.378687e+01    8.214576e+07    1.560560e-08    3.831231e-10    1.549439e-08    2.627741e-09   -3.170000e+00    5.882544e-01    1.983827e+00
    5.888886e-01    3.342557e+00    1.370624e+01    8.234933e+07    1.559953e-08    3.700796e-10    1.549199e-08    2.627059e-09   -3.160000e+00    5.882544e-01    1.975227e+00
    5.936089e-01    3.428826e+00    1.362544e+01    8.255102e+07    1.559368e-08    3.574706e-10    1.548936e-08    2.626367e-09   -3.150000e+00    5.882544e-01    1.966637e+00
    5.983855e-01    3.519168e+00    1.354447e+01    8.275066e+07    1.558805e-08    3.452847e-10    1.548650e-08    2.625666e-09   -3.140000e+00    5.882544e-01    1.958056e+00
    6.032184e-01    3.613853e+00    1.346334e+01    8.294814e+07    1.558264e-08    3.335106e-10    1.548341e-08    2.624956e-09   -3.130000e+00    5.882544e-01    1.949485e+00
    6.081089e-01    3.713180e+00    1.338204e+01    8.314347e+07    1.557743e-08    3.221368e-10    1.548011e-08    2.624239e-09   -3.120000e+00    5.882544e-01    1.940924e+00
    6.130561e-01    3.817463e+00    1.330058e+01    8.333642e+07    1.557242e-08    3.111522e-10    1.547660e-08    2.623514e-09   -3.110000e+00    5.882544e-01    1.932372e+00
    6.180609e-01    3.927051e+00    1.321896e+01    8.352695e+07    1.556762e-08    3.005455e-10    1.547287e-08    2.622782e-09   -3.100000e+00    5.882544e-01    1.923830e+00
    6.231232e-01    4.042321e+00    1.313719e+01    8.371493e+07    1.556301e-08    2.903055e-10    1.546896e-08    2.622044e-09   -3.090000e+00    5.882544e-01    1.915298e+00
    6.282429e-01    4.163679e+00    1.305525e+01    8.390016e+07    1.555858e-08    2.804213e-10    1.546485e-08    2.621302e-09   -3.080000e+00    5.882544e-01    1.906775e+00
    6.334197e-01    4.291565e+00    1.297315e+01    8.408250e+07    1.555433e-08    2.708820e-10    1.546055e-08    2.620555e-09   -3.070000e+00    5.882544e-01    1.898262e+00
    6.386535e-01    4.426465e+00    1.289090e+01    8.426185e+07    1.555025e-08    2.616768e-10    1.545608e-08    2.619804e-09   -3.060000e+00    5.882544e-01    1.889758e+00
    6.439440e-01    4.568900e+00    1.280849e+01    8.443796e+07    1.554635e-08    2.527953e-10    1.545143e-08    2.619049e-09   -3.050000e+00    5.882544e-01    1.881264e+00
    6.492906e-01    4.719441e+00    1.272594e+01    8.461067e+07    1.554261e-08    2.442271e-10    1.544661e-08    2.618292e-09   -3.040000e+00    5.882544e-01    1.872779e+00
    6.546924e-01    4.878705e+00    1.264324e+01    8.477970e+07    1.553903e-08    2.359619e-10    1.544163e-08    2.617531e-09   -3.030000e+00    5.882544e-01    1.864304e+00
    6.601487e-01    5.047368e+00    1.256039e+01    8.494487e+07    1.553560e-08    2.279897e-10    1.543649e-08    2.616769e-09   -3.020000e+00    5.882544e-01    1.855839e+00
    6.656587e-01    5.226163e+00    1.247740e+01    8.510593e+07    1.553231e-08    2.203011e-10    1.543120e-08    2.616006e-09   -3.010000e+00    5.882544e-01    1.847383e+00
    6.712204e-01    5.415885e+00    1.239428e+01    8.526252e+07    1.552917e-08    2.128862e-10    1.542576e-08    2.615241e-09   -3.000000e+00    5.882544e-01    1.838936e+00
    6.768326e-01    5.617408e+00    1.231102e+01    8.541443e+07    1.552617e-08    2.057357e-10    1.542019e-08    2.614475e-09   -2.990000e+00    5.882544e-01    1.830499e+00
    6.824941e-01    5.831675e+00    1.222763e+01    8.556130e+07    1.552330e-08    1.988408e-10    1.541447e-08    2.613709e-09   -2.980000e+00    5.882544e-01    1.822071e+00
    6.882029e-01    6.059716e+00    1.214412e+01    8.570285e+07    1.552056e-08    1.921923e-10    1.540862e-08    2.612943e-09   -2.970000e+00    5.882544e-01    1.813653e+00
    6.939558e-01    6.302640e+00    1.206048e+01    8.583860e+07    1.551793e-08    1.857818e-10    1.540265e-08    2.612177e-09   -2.960000e+00    5.882544e-01    1.805244e+00
    6.997518e-01    6.561667e+00    1.197673e+01    8.596829e+07    1.551544e-08    1.796009e-10    1.539655e-08    2.611412e-09   -2.950000e+00    5.882544e-01    1.796844e+00
    7.055873e-01    6.838110e+00    1.189287e+01    8.609149e+07    1.551305e-08    1.736415e-10    1.539033e-08    2.610647e-09   -2.940000e+00    5.882544e-01    1.788454e+00
    7.114592e-01    7.133381e+00    1.180890e+01    8.620770e+07    1.551078e-08    1.678955e-10    1.538400e-08    2.609884e-09   -2.930000e+00    5.882544e-01    1.780073e+00
    7.173649e-01    7.449032e+00    1.172484e+01    8.631656e+07    1.550861e-08    1.623554e-10    1.537755e-08    2.609122e-09   -2.920000e+00    5.882544e-01    1.771702e+00
    7.233001e-01    7.786712e+00    1.164068e+01    8.641758e+07    1.550654e-08    1.570138e-10    1.537100e-08    2.608362e-09   -2.910000e+00    5.882544e-01    1.763340e+00
    7.292619e-01    8.148216e+00    1.155645e+01    8.651037e+07    1.550457e-08    1.518634e-10    1.536433e-08    2.607604e-09   -2.900000e+00    5.882544e-01    1.754987e+00
    7.352462e-01    8.535460e+00    1.147213e+01    8.659437e+07    1.550270e-08    1.468972e-10    1.535758e-08    2.606847e-09   -2.890000e+00    5.882544e-01    1.746643e+00
    7.412483e-01    8.950496e+00    1.138775e+01    8.666913e+07    1.550092e-08    1.421086e-10    1.535072e-08    2.606093e-09   -2.880000e+00    5.882544e-01    1.738308e+00
    7.472647e-01    9.395522e+00    1.130331e+01    8.673424e+07    1.549922e-08    1.374910e-10    1.534377e-08    2.605341e-09   -2.870000e+00    5.882544e-01    1.729983e+00
    7.532909e-01    9.872877e+00    1.121882e+01    8.678918e+07    1.549760e-08    1.330381e-10    1.533673e-08    2.604591e-09   -2.860000e+00    5.882544e-01    1.721667e+00
    7.593215e-01    1.038502e+01    1.113430e+01    8.683347e+07    1.549606e-08    1.287437e-10    1.532959e-08    2.603843e-09   -2.850000e+00    5.882544e-01    1.713360e+00
    7.653536e-01    1.093457e+01    1.104974e+01    8.686676e+07    1.549461e-08    1.246021e-10    1.532238e-08    2.603099e-09   -2.840000e+00    5.882544e-01    1.705062e+00
    7.713818e-01    1.152426e+01    1.096516e+01    8.688860e+07    1.549322e-08    1.206076e-10    1.531508e-08    2.602357e-09   -2.830000e+00    5.882544e-01    1.696774e+00
    7.774019e-01    1.215695e+01    1.088058e+01    8.689860e+07    1.549191e-08    1.167546e-10    1.530770e-08    2.601618e-09   -2.820000e+00    5.882544e-01    1.688494e+00
    7.834103e-01    1.283560e+01    1.079599e+01    8.689644e+07    1.549066e-08    1.130379e-10    1.530024e-08    2.600881e-09   -2.810000e+00    5.882544e-01    1.680224e+00
    7.894024e-01    1.356328e+01    1.071143e+01    8.688187e+07    1.548947e-08    1.094524e-10    1.529270e-08    2.600148e-09   -2.800000e+00    5.882544e-01    1.671963e+00
    7.953750e-01    1.434309e+01    1.062688e+01    8.685458e+07    1.548835e-08    1.059932e-10    1.528510e-08    2.599418e-09   -2.790000e+00    5.882544e-01    1.663711e+00
    8.013252e-01    1.517824e+01    1.054238e+01    8.681448e+07    1.548729e-08    1.026556e-10    1.527742e-08    2.598690e-09   -2.780000e+00    5.882544e-01    1.655468e+00
    8.072496e-01    1.607192e+01    1.045793e+01    8.676141e+07    1.548628e-08    9.943495e-11    1.526967e-08    2.597965e-09   -2.770000e+00    5.882544e-01    1.647234e+00
    8.131467e-01    1.702733e+01    1.037354e+01    8.669533e+07    1.548533e-08    9.632700e-11    1.526186e-08    2.597244e-09   -2.760000e+00    5.882544e-01    1.639009e+00
    8.190137e-01    1.804762e+01    1.028923e+01    8.661622e+07    1.548442e-08    9.332740e-11    1.525398e-08    2.596524e-09   -2.750000e+00    5.882544e-01    1.630793e+00
    8.248497e-01    1.913588e+01    1.020500e+01    8.652412e+07    1.548356e-08    9.043215e-11    1.524603e-08    2.595809e-09   -2.740000e+00    5.882544e-01    1.622586e+00
    8.306545e-01    2.029509e+01    1.012088e+01    8.641927e+07    1.548276e-08    8.763735e-11    1.523802e-08    2.595096e-09   -2.730000e+00    5.882544e-01    1.614388e+00
    8.364266e-01    2.152805e+01    1.003687e+01    8.630173e+07    1.548199e-08    8.493920e-11    1.522996e-08    2.594386e-09   -2.720000e+00    5.882544e-01    1.606199e+00
    8.421669e-01    2.283743e+01    9.952985e+00    8.617178e+07    1.548127e-08    8.233410e-11    1.522183e-08    2.593679e-09   -2.710000e+00    5.882544e-01    1.598019e+00
    8.478772e-01    2.422565e+01    9.869230e+00    8.602981e+07    1.548059e-08    7.981860e-11    1.521365e-08    2.592975e-09   -2.700000e+00    5.882544e-01    1.589848e+00
    8.535567e-01    2.569488e+01    9.785630e+00    8.587604e+07    1.547994e-08    7.738925e-11    1.520541e-08    2.592274e-09   -2.690000e+00    5.882544e-01    1.581686e+00
    8.592085e-01    2.724703e+01    9.702185e+00    8.571091e+07    1.547933e-08    7.504295e-11    1.519712e-08    2.591575e-09   -2.680000e+00    5.882544e-01    1.573532e+00
    8.648345e-01    2.888369e+01    9.618910e+00    8.553482e+07    1.547876e-08    7.277655e-11    1.518877e-08    2.590878e-09   -2.670000e+00    5.882544e-01    1.565388e+00
    8.704363e-01    3.060607e+01    9.535810e+00    8.534812e+07    1.547821e-08    7.058705e-11    1.518036e-08    2.590185e-09   -2.660000e+00    5.882544e-01    1.557252e+00
    8.760169e-01    3.241513e+01    9.452905e+00    8.515137e+07    1.547770e-08    6.847165e-11    1.517191e-08    2.589495e-09   -2.650000e+00    5.882544e-01    1.549126e+00
    8.815798e-01    3.431142e+01    9.370195e+00    8.494498e+07    1.547721e-08    6.642755e-11    1.516341e-08    2.588807e-09   -2.640000e+00    5.882544e-01    1.541008e+00
    8.871275e-01    3.629515e+01    9.287695e+00    8.472945e+07    1.547675e-08    6.445215e-11    1.515486e-08    2.588121e-09   -2.630000e+00    5.882544e-01    1.532899e+00
    8.926631e-01    3.836612e+01    9.205410e+00    8.450517e+07    1.547632e-08    6.254285e-11    1.514626e-08    2.587437e-09   -2.620000e+00    5.882544e-01    1.524798e+00
    8.981904e-01    4.052387e+01    9.123350e+00    8.427268e+07    1.547591e-08    6.069725e-11    1.513761e-08    2.586756e-09   -2.610000e+00    5.882544e-01    1.516707e+00
    9.037115e-01    4.276750e+01    9.041525e+00    8.403232e+07    1.547552e-08    5.891300e-11    1.512891e-08    2.586077e-09   -2.600000e+00    5.882544e-01    1.508624e+00
    9.092320e-01    4.509592e+01    8.959935e+00    8.378470e+07    1.547516e-08    5.718780e-11    1.512017e-08    2.585400e-09   -2.590000e+00    5.882544e-01    1.500550e+00
    9.147534e-01    4.750762e+01    8.878595e+00    8.353014e+07    1.547480e-08    5.551955e-11    1.511138e-08    2.584726e-09   -2.580000e+00    5.882544e-01    1.492485e+00
    9.202802e-01    5.000090e+01    8.797505e+00    8.326909e+07    1.547448e-08    5.390615e-11    1.510255e-08    2.584053e-09   -2.570000e+00    5.882544e-01    1.484428e+00
    9.258157e-01    5.257378e+01    8.716670e+00    8.300190e+07    1.547416e-08    5.234555e-11    1.509367e-08    2.583381e-09   -2.560000e+00    5.882544e-01    1.476381e+00
    9.313620e-01    5.522404e+01    8.636105e+00    8.272900e+07    1.547387e-08    5.083590e-11    1.508475e-08    2.582713e-09   -2.550000e+00    5.882544e-01    1.468341e+00
    9.369235e-01    5.794938e+01    8.555805e+00    8.245067e+07    1.547359e-08    4.937528e-11    1.507578e-08    2.582045e-09   -2.540000e+00    5.882544e-01    1.460311e+00
    9.425027e-01    6.074733e+01    8.475785e+00    8.216735e+07    1.547332e-08    4.796196e-11    1.506678e-08    2.581379e-09   -2.530000e+00    5.882544e-01    1.452289e+00
    9.481029e-01    6.361520e+01    8.396040e+00    8.187929e+07    1.547306e-08    4.659422e-11    1.505773e-08    2.580715e-09   -2.520000e+00    5.882544e-01    1.444276e+00
    9.537274e-01    6.655040e+01    8.316580e+00    8.158684e+07    1.547280e-08    4.527042e-11    1.504864e-08    2.580052e-09   -2.510000e+00    5.882544e-01    1.436271e+00
    9.593786e-01    6.955013e+01    8.237405e+00    8.129021e+07    1.547257e-08    4.398897e-11    1.503950e-08    2.579391e-09   -2.500000e+00    5.882544e-01    1.428275e+00
    9.650586e-01    7.261168e+01    8.158525e+00    8.098967e+07    1.547233e-08    4.274836e-11    1.503034e-08    2.578730e-09   -2.490000e+00    5.882544e-01    1.420288e+00
    9.707708e-01    7.573228e+01    8.079940e+00    8.068546e+07    1.547212e-08    4.154714e-11    1.502112e-08    2.578071e-09   -2.480000e+00    5.882544e-01    1.412309e+00
    9.765180e-01    7.890928e+01    8.001650e+00    8.037785e+07    1.547190e-08    4.038391e-11    1.501186e-08    2.577413e-09   -2.470000e+00    5.882544e-01    1.404338e+00
    9.823018e-01    8.213995e+01    7.923665e+00    8.006700e+07    1.547169e-08    3.925730e-11    1.500257e-08    2.576756e-09   -2.460000e+00    5.882544e-01    1.396377e+00
    9.881251e-01    8.542180e+01    7.845980e+00    7.975307e+07    1.547148e-08    3.816604e-11    1.499323e-08    2.576099e-09   -2.450000e+00    5.882544e-01    1.388423e+00
    9.939899e-01    8.875235e+01    7.768610e+00    7.943636e+07    1.547128e-08    3.710887e-11    1.498386e-08    2.575444e-09   -2.440000e+00    5.882544e-01    1.380479e+00
    9.998986e-01    9.212919e+01    7.691545e+00    7.911689e+07    1.547108e-08    3.608460e-11    1.497444e-08    2.574789e-09   -2.430000e+00    5.882544e-01    1.372542e+00
    1.005854e+00    9.555013e+01    7.614795e+00    7.879494e+07    1.547087e-08    3.509207e-11    1.496499e-08    2.574133e-09   -2.420000e+00    5.882544e-01    1.364614e+00
    1.011856e+00    9.901289e+01    7.538360e+00    7.847051e+07    1.547068e-08    3.413018e-11    1.495549e-08    2.573479e-09   -2.410000e+00    5.882544e-01    1.356695e+00
    1.017910e+00    1.025157e+02    7.462240e+00    7.814386e+07    1.547047e-08    3.319787e-11    1.494596e-08    2.572826e-09   -2.400000e+00    5.882544e-01    1.348784e+00
    1.024015e+00    1.060565e+02    7.386440e+00    7.781504e+07    1.547028e-08    3.229409e-11    1.493639e-08    2.572173e-09   -2.390000e+00    5.882544e-01    1.340882e+00
    1.030174e+00    1.096338e+02    7.310965e+00    7.748419e+07    1.547007e-08    3.141789e-11    1.492678e-08    2.571519e-09   -2.380000e+00    5.882544e-01    1.332987e+00
    1.036389e+00    1.132458e+02    7.235810e+00    7.715137e+07    1.546987e-08    3.056829e-11    1.491713e-08    2.570866e-09   -2.370000e+00    5.882544e-01    1.325102e+00
    1.042661e+00    1.168911e+02    7.160985e+00    7.681666e+07    1.546966e-08    2.974440e-11    1.490744e-08    2.570212e-09   -2.360000e+00    5.882544e-01    1.317224e+00
    1.048994e+00    1.205686e+02    7.086480e+00    7.648019e+07    1.546945e-08    2.894532e-11    1.489771e-08    2.569559e-09   -2.350000e+00    5.882544e-01    1.309355e+00
    1.055388e+00    1.242771e+02    7.012310e+00    7.614207e+07    1.546923e-08    2.817022e-11    1.488794e-08    2.568905e-09   -2.340000e+00    5.882544e-01    1.301495e+00
    1.061844e+00    1.280153e+02    6.938470e+00    7.580226e+07    1.546900e-08    2.741829e-11    1.487813e-08    2.568250e-09   -2.330000e+00    5.882544e-01    1.293642e+00
    1.068366e+00    1.317829e+02    6.864960e+00    7.546098e+07    1.546877e-08    2.668874e-11    1.486828e-08    2.567596e-09   -2.320000e+00    5.882544e-01    1.285798e+00
    1.074954e+00    1.355785e+02    6.791785e+00    7.511811e+07    1.546854e-08    2.598080e-11    1.485839e-08    2.566940e-09   -2.310000e+00    5.882544e-01    1.277963e+00
    1.081611e+00    1.394018e+02    6.718940e+00    7.477385e+07    1.546829e-08    2.529377e-11    1.484847e-08    2.566284e-09   -2.300000e+00    5.882544e-01    1.270135e+00
    1.088338e+00    1.432523e+02    6.646440e+00    7.442823e+07    1.546804e-08    2.462695e-11    1.483849e-08    2.565627e-09   -2.290000e+00    5.882544e-01    1.262316e+00
    1.095136e+00    1.471295e+02    6.574270e+00    7.408120e+07    1.546777e-08    2.397966e-11    1.482849e-08    2.564969e-09   -2.280000e+00    5.882544e-01    1.254505e+00
    1.102008e+00    1.510331e+02    6.502445e+00    7.373293e+07    1.546750e-08    2.335124e-11    1.481844e-08    2.564310e-09   -2.270000e+00    5.882544e-01    1.246702e+00
    1.108956e+00    1.549630e+02    6.430955e+00    7.338341e+07    1.546721e-08    2.274108e-11    1.480835e-08    2.563651e-09   -2.260000e+00    5.882544e-01    1.238908e+00
    1.115981e+00    1.589191e+02    6.359810e+00    7.303268e+07    1.546692e-08    2.214858e-11    1.479822e-08    2.562989e-09   -2.250000e+00    5.882544e-01    1.231121e+00
    1.123084e+00    1.629012e+02    6.289010e+00    7.268078e+07    1.546661e-08    2.157316e-11    1.478804e-08    2.562327e-09   -2.240000e+00    5.882544e-01    1.223343e+00
    1.130268e+00    1.669095e+02    6.218550e+00    7.232767e+07    1.546628e-08    2.101425e-11    1.477783e-08    2.561663e-09   -2.230000e+00    5.882544e-01    1.215573e+00
    1.137534e+00    1.709441e+02    6.148435e+00    7.197349e+07    1.546595e-08    2.047132e-11    1.476757e-08    2.560998e-09   -2.220000e+00    5.882544e-01    1.207811e+00
