# GF180MCU-D pfet_03v3 gm/ID Processed Lookup Table
# Corner: ff
# Temperature: 85C
# W = 2.0 um
# L = 5.5 um (5500 nm)
# Columns: gm/id [1/V]  gm/gds [V/V]  id/W [A/m]  ft [Hz]  Cgg/W [F/m]  Cgd/W [F/m]  Cgs/W [F/m]  Cdb/W [F/m]  vgs [V]  vth [V]  vdsat [V]
# vdsat = BSIM saturation voltage (|VDS|_sat, positive); use for headroom / saturation / cascode-bias calculations
#           gm/id          gm/gds            id/W              ft           Cgg/W           Cgd/W           Cgs/W           Cdb/W             vgs             vth           vdsat
    5.315895e-01    2.497506e+00    1.209912e+01    5.336980e+07    1.918027e-08    7.403940e-10    1.894392e-08    3.229550e-09   -3.300000e+00    5.873765e-01    2.089659e+00
    5.356051e-01    2.548168e+00    1.203480e+01    5.352013e+07    1.916843e-08    7.159660e-10    1.894555e-08    3.228943e-09   -3.290000e+00    5.873765e-01    2.080948e+00
    5.396756e-01    2.600735e+00    1.197020e+01    5.366957e+07    1.915695e-08    6.922370e-10    1.894679e-08    3.228313e-09   -3.280000e+00    5.873765e-01    2.072246e+00
    5.437918e-01    2.655309e+00    1.190553e+01    5.381802e+07    1.914581e-08    6.691980e-10    1.894764e-08    3.227659e-09   -3.270000e+00    5.873765e-01    2.063555e+00
    5.479574e-01    2.712001e+00    1.184072e+01    5.396547e+07    1.913503e-08    6.468395e-10    1.894809e-08    3.226983e-09   -3.260000e+00    5.873765e-01    2.054874e+00
    5.521739e-01    2.770935e+00    1.177576e+01    5.411195e+07    1.912458e-08    6.251510e-10    1.894818e-08    3.226285e-09   -3.250000e+00    5.873765e-01    2.046202e+00
    5.564413e-01    2.832237e+00    1.171067e+01    5.425740e+07    1.911447e-08    6.041205e-10    1.894789e-08    3.225568e-09   -3.240000e+00    5.873765e-01    2.037541e+00
    5.607603e-01    2.896047e+00    1.164544e+01    5.440179e+07    1.910470e-08    5.837370e-10    1.894723e-08    3.224830e-09   -3.230000e+00    5.873765e-01    2.028889e+00
    5.651315e-01    2.962513e+00    1.158007e+01    5.454506e+07    1.909525e-08    5.639885e-10    1.894623e-08    3.224073e-09   -3.220000e+00    5.873765e-01    2.020248e+00
    5.695557e-01    3.031794e+00    1.151456e+01    5.468723e+07    1.908611e-08    5.448620e-10    1.894488e-08    3.223299e-09   -3.210000e+00    5.873765e-01    2.011616e+00
    5.740331e-01    3.104063e+00    1.144890e+01    5.482821e+07    1.907730e-08    5.263445e-10    1.894320e-08    3.222507e-09   -3.200000e+00    5.873765e-01    2.002994e+00
    5.785648e-01    3.179507e+00    1.138312e+01    5.496803e+07    1.906879e-08    5.084235e-10    1.894118e-08    3.221699e-09   -3.190000e+00    5.873765e-01    1.994383e+00
    5.831512e-01    3.258324e+00    1.131719e+01    5.510658e+07    1.906058e-08    4.910848e-10    1.893884e-08    3.220877e-09   -3.180000e+00    5.873765e-01    1.985781e+00
    5.877926e-01    3.340732e+00    1.125112e+01    5.524386e+07    1.905268e-08    4.743149e-10    1.893620e-08    3.220041e-09   -3.170000e+00    5.873765e-01    1.977188e+00
    5.924893e-01    3.426962e+00    1.118492e+01    5.537979e+07    1.904506e-08    4.580999e-10    1.893325e-08    3.219191e-09   -3.160000e+00    5.873765e-01    1.968606e+00
    5.972426e-01    3.517272e+00    1.111858e+01    5.551437e+07    1.903772e-08    4.424259e-10    1.893000e-08    3.218329e-09   -3.150000e+00    5.873765e-01    1.960033e+00
    6.020516e-01    3.611928e+00    1.105211e+01    5.564747e+07    1.903065e-08    4.272788e-10    1.892646e-08    3.217456e-09   -3.140000e+00    5.873765e-01    1.951471e+00
    6.069170e-01    3.711227e+00    1.098551e+01    5.577904e+07    1.902385e-08    4.126446e-10    1.892266e-08    3.216573e-09   -3.130000e+00    5.873765e-01    1.942918e+00
    6.118398e-01    3.815495e+00    1.091877e+01    5.590906e+07    1.901732e-08    3.985091e-10    1.891858e-08    3.215679e-09   -3.120000e+00    5.873765e-01    1.934374e+00
    6.168195e-01    3.925076e+00    1.085190e+01    5.603742e+07    1.901103e-08    3.848584e-10    1.891424e-08    3.214777e-09   -3.110000e+00    5.873765e-01    1.925841e+00
    6.218566e-01    4.040350e+00    1.078489e+01    5.616404e+07    1.900500e-08    3.716786e-10    1.890964e-08    3.213868e-09   -3.100000e+00    5.873765e-01    1.917317e+00
    6.269500e-01    4.161722e+00    1.071776e+01    5.628879e+07    1.899920e-08    3.589557e-10    1.890480e-08    3.212951e-09   -3.090000e+00    5.873765e-01    1.908803e+00
    6.321008e-01    4.289643e+00    1.065050e+01    5.641161e+07    1.899363e-08    3.466762e-10    1.889972e-08    3.212028e-09   -3.080000e+00    5.873765e-01    1.900298e+00
    6.373078e-01    4.424595e+00    1.058312e+01    5.653238e+07    1.898829e-08    3.348265e-10    1.889441e-08    3.211099e-09   -3.070000e+00    5.873765e-01    1.891804e+00
    6.425719e-01    4.567112e+00    1.051561e+01    5.665100e+07    1.898317e-08    3.233932e-10    1.888888e-08    3.210166e-09   -3.060000e+00    5.873765e-01    1.883318e+00
    6.478913e-01    4.717763e+00    1.044798e+01    5.676731e+07    1.897826e-08    3.123633e-10    1.888313e-08    3.209228e-09   -3.050000e+00    5.873765e-01    1.874843e+00
    6.532662e-01    4.877174e+00    1.038022e+01    5.688116e+07    1.897355e-08    3.017236e-10    1.887717e-08    3.208287e-09   -3.040000e+00    5.873765e-01    1.866377e+00
    6.586945e-01    5.046028e+00    1.031236e+01    5.699238e+07    1.896905e-08    2.914618e-10    1.887101e-08    3.207343e-09   -3.030000e+00    5.873765e-01    1.857920e+00
    6.641767e-01    5.225069e+00    1.024437e+01    5.710085e+07    1.896473e-08    2.815652e-10    1.886465e-08    3.206396e-09   -3.020000e+00    5.873765e-01    1.849473e+00
    6.697112e-01    5.415110e+00    1.017628e+01    5.720638e+07    1.896060e-08    2.720217e-10    1.885811e-08    3.205448e-09   -3.010000e+00    5.873765e-01    1.841036e+00
    6.752956e-01    5.617025e+00    1.010807e+01    5.730873e+07    1.895665e-08    2.628195e-10    1.885139e-08    3.204498e-09   -3.000000e+00    5.873765e-01    1.832608e+00
    6.809291e-01    5.831785e+00    1.003976e+01    5.740775e+07    1.895287e-08    2.539467e-10    1.884449e-08    3.203548e-09   -2.990000e+00    5.873765e-01    1.824190e+00
    6.866100e-01    6.060435e+00    9.971345e+00    5.750319e+07    1.894925e-08    2.453923e-10    1.883742e-08    3.202598e-09   -2.980000e+00    5.873765e-01    1.815781e+00
    6.923354e-01    6.304111e+00    9.902830e+00    5.759477e+07    1.894580e-08    2.371450e-10    1.883019e-08    3.201647e-09   -2.970000e+00    5.873765e-01    1.807382e+00
    6.981033e-01    6.564057e+00    9.834225e+00    5.768231e+07    1.894250e-08    2.291941e-10    1.882280e-08    3.200697e-09   -2.960000e+00    5.873765e-01    1.798992e+00
    7.039106e-01    6.841617e+00    9.765530e+00    5.776548e+07    1.893935e-08    2.215293e-10    1.881525e-08    3.199748e-09   -2.950000e+00    5.873765e-01    1.790612e+00
    7.097552e-01    7.138261e+00    9.696745e+00    5.784403e+07    1.893635e-08    2.141402e-10    1.880755e-08    3.198801e-09   -2.940000e+00    5.873765e-01    1.782241e+00
    7.156333e-01    7.455578e+00    9.627885e+00    5.791767e+07    1.893348e-08    2.070171e-10    1.879972e-08    3.197854e-09   -2.930000e+00    5.873765e-01    1.773879e+00
    7.215425e-01    7.795284e+00    9.558945e+00    5.798617e+07    1.893074e-08    2.001504e-10    1.879175e-08    3.196910e-09   -2.920000e+00    5.873765e-01    1.765527e+00
    7.274772e-01    8.159224e+00    9.489940e+00    5.804906e+07    1.892813e-08    1.935307e-10    1.878364e-08    3.195968e-09   -2.910000e+00    5.873765e-01    1.757184e+00
    7.334351e-01    8.549417e+00    9.420875e+00    5.810617e+07    1.892565e-08    1.871491e-10    1.877541e-08    3.195028e-09   -2.900000e+00    5.873765e-01    1.748850e+00
    7.394119e-01    8.968012e+00    9.351750e+00    5.815714e+07    1.892328e-08    1.809969e-10    1.876704e-08    3.194091e-09   -2.890000e+00    5.873765e-01    1.740526e+00
    7.454027e-01    9.417316e+00    9.282580e+00    5.820161e+07    1.892103e-08    1.750656e-10    1.875856e-08    3.193156e-09   -2.880000e+00    5.873765e-01    1.732211e+00
    7.514037e-01    9.899800e+00    9.213370e+00    5.823935e+07    1.891888e-08    1.693472e-10    1.874996e-08    3.192225e-09   -2.870000e+00    5.873765e-01    1.723906e+00
    7.574104e-01    1.041809e+01    9.144125e+00    5.826999e+07    1.891684e-08    1.638337e-10    1.874125e-08    3.191297e-09   -2.860000e+00    5.873765e-01    1.715609e+00
    7.634183e-01    1.097499e+01    9.074855e+00    5.829326e+07    1.891490e-08    1.585175e-10    1.873243e-08    3.190371e-09   -2.850000e+00    5.873765e-01    1.707322e+00
    7.694233e-01    1.157347e+01    9.005570e+00    5.830892e+07    1.891306e-08    1.533913e-10    1.872350e-08    3.189449e-09   -2.840000e+00    5.873765e-01    1.699044e+00
    7.754204e-01    1.221660e+01    8.936275e+00    5.831664e+07    1.891130e-08    1.484480e-10    1.871447e-08    3.188531e-09   -2.830000e+00    5.873765e-01    1.690776e+00
    7.814054e-01    1.290765e+01    8.866985e+00    5.831624e+07    1.890963e-08    1.436807e-10    1.870534e-08    3.187617e-09   -2.820000e+00    5.873765e-01    1.682516e+00
    7.873752e-01    1.365001e+01    8.797705e+00    5.830752e+07    1.890805e-08    1.390829e-10    1.869612e-08    3.186705e-09   -2.810000e+00    5.873765e-01    1.674266e+00
    7.933257e-01    1.444719e+01    8.728445e+00    5.829031e+07    1.890654e-08    1.346483e-10    1.868680e-08    3.185798e-09   -2.800000e+00    5.873765e-01    1.666025e+00
    7.992533e-01    1.530278e+01    8.659220e+00    5.826448e+07    1.890512e-08    1.303706e-10    1.867739e-08    3.184894e-09   -2.790000e+00    5.873765e-01    1.657793e+00
    8.051561e-01    1.622047e+01    8.590030e+00    5.822997e+07    1.890377e-08    1.262439e-10    1.866790e-08    3.183994e-09   -2.780000e+00    5.873765e-01    1.649570e+00
    8.110304e-01    1.720398e+01    8.520895e+00    5.818668e+07    1.890249e-08    1.222627e-10    1.865832e-08    3.183098e-09   -2.770000e+00    5.873765e-01    1.641356e+00
    8.168749e-01    1.825705e+01    8.451820e+00    5.813464e+07    1.890127e-08    1.184213e-10    1.864865e-08    3.182206e-09   -2.760000e+00    5.873765e-01    1.633152e+00
    8.226884e-01    1.938343e+01    8.382815e+00    5.807390e+07    1.890012e-08    1.147147e-10    1.863890e-08    3.181317e-09   -2.750000e+00    5.873765e-01    1.624956e+00
    8.284691e-01    2.058677e+01    8.313895e+00    5.800449e+07    1.889903e-08    1.111376e-10    1.862908e-08    3.180432e-09   -2.740000e+00    5.873765e-01    1.616770e+00
    8.342172e-01    2.187067e+01    8.245065e+00    5.792656e+07    1.889799e-08    1.076852e-10    1.861918e-08    3.179551e-09   -2.730000e+00    5.873765e-01    1.608593e+00
    8.399326e-01    2.323859e+01    8.176335e+00    5.784023e+07    1.889702e-08    1.043529e-10    1.860920e-08    3.178674e-09   -2.720000e+00    5.873765e-01    1.600424e+00
    8.456162e-01    2.469382e+01    8.107715e+00    5.774575e+07    1.889609e-08    1.011360e-10    1.859916e-08    3.177800e-09   -2.710000e+00    5.873765e-01    1.592265e+00
    8.512692e-01    2.623948e+01    8.039220e+00    5.764335e+07    1.889521e-08    9.803025e-11    1.858903e-08    3.176930e-09   -2.700000e+00    5.873765e-01    1.584115e+00
    8.568923e-01    2.787836e+01    7.970850e+00    5.753318e+07    1.889438e-08    9.503150e-11    1.857885e-08    3.176064e-09   -2.690000e+00    5.873765e-01    1.575973e+00
    8.624892e-01    2.961309e+01    7.902615e+00    5.741561e+07    1.889360e-08    9.213570e-11    1.856859e-08    3.175200e-09   -2.680000e+00    5.873765e-01    1.567841e+00
    8.680598e-01    3.144589e+01    7.834535e+00    5.729087e+07    1.889285e-08    8.933905e-11    1.855826e-08    3.174341e-09   -2.670000e+00    5.873765e-01    1.559717e+00
    8.736082e-01    3.337870e+01    7.766605e+00    5.715927e+07    1.889215e-08    8.663775e-11    1.854788e-08    3.173485e-09   -2.660000e+00    5.873765e-01    1.551603e+00
    8.791376e-01    3.541310e+01    7.698835e+00    5.702112e+07    1.889149e-08    8.402830e-11    1.853743e-08    3.172632e-09   -2.650000e+00    5.873765e-01    1.543497e+00
    8.846498e-01    3.755032e+01    7.631240e+00    5.687677e+07    1.889086e-08    8.150730e-11    1.852692e-08    3.171782e-09   -2.640000e+00    5.873765e-01    1.535400e+00
    8.901488e-01    3.979115e+01    7.563820e+00    5.672648e+07    1.889027e-08    7.907135e-11    1.851635e-08    3.170935e-09   -2.630000e+00    5.873765e-01    1.527313e+00
    8.956371e-01    4.213603e+01    7.496585e+00    5.657058e+07    1.888970e-08    7.671740e-11    1.850571e-08    3.170091e-09   -2.620000e+00    5.873765e-01    1.519234e+00
    9.011197e-01    4.458503e+01    7.429535e+00    5.640940e+07    1.888917e-08    7.444235e-11    1.849502e-08    3.169251e-09   -2.610000e+00    5.873765e-01    1.511164e+00
    9.065979e-01    4.713783e+01    7.362685e+00    5.624319e+07    1.888866e-08    7.224325e-11    1.848427e-08    3.168413e-09   -2.600000e+00    5.873765e-01    1.503102e+00
    9.120763e-01    4.979376e+01    7.296040e+00    5.607230e+07    1.888818e-08    7.011735e-11    1.847346e-08    3.167577e-09   -2.590000e+00    5.873765e-01    1.495050e+00
    9.175590e-01    5.255176e+01    7.229595e+00    5.589699e+07    1.888773e-08    6.806195e-11    1.846260e-08    3.166744e-09   -2.580000e+00    5.873765e-01    1.487006e+00
    9.230474e-01    5.541048e+01    7.163370e+00    5.571753e+07    1.888729e-08    6.607445e-11    1.845168e-08    3.165914e-09   -2.570000e+00    5.873765e-01    1.478971e+00
    9.285466e-01    5.836830e+01    7.097355e+00    5.553415e+07    1.888688e-08    6.415235e-11    1.844071e-08    3.165087e-09   -2.560000e+00    5.873765e-01    1.470945e+00
    9.340595e-01    6.142329e+01    7.031565e+00    5.534718e+07    1.888649e-08    6.229325e-11    1.842968e-08    3.164261e-09   -2.550000e+00    5.873765e-01    1.462928e+00
    9.395880e-01    6.457325e+01    6.966000e+00    5.515673e+07    1.888611e-08    6.049485e-11    1.841861e-08    3.163438e-09   -2.540000e+00    5.873765e-01    1.454919e+00
    9.451364e-01    6.781581e+01    6.900665e+00    5.496312e+07    1.888575e-08    5.875495e-11    1.840747e-08    3.162616e-09   -2.530000e+00    5.873765e-01    1.446919e+00
    9.507070e-01    7.114842e+01    6.835560e+00    5.476646e+07    1.888541e-08    5.707145e-11    1.839628e-08    3.161797e-09   -2.520000e+00    5.873765e-01    1.438928e+00
    9.563036e-01    7.456846e+01    6.770690e+00    5.456701e+07    1.888508e-08    5.544230e-11    1.838505e-08    3.160979e-09   -2.510000e+00    5.873765e-01    1.430945e+00
    9.619270e-01    7.807303e+01    6.706065e+00    5.436491e+07    1.888476e-08    5.386550e-11    1.837377e-08    3.160163e-09   -2.500000e+00    5.873765e-01    1.422971e+00
    9.675820e-01    8.165940e+01    6.641680e+00    5.416037e+07    1.888444e-08    5.233920e-11    1.836243e-08    3.159349e-09   -2.490000e+00    5.873765e-01    1.415006e+00
    9.732704e-01    8.532447e+01    6.577535e+00    5.395348e+07    1.888414e-08    5.086160e-11    1.835105e-08    3.158536e-09   -2.480000e+00    5.873765e-01    1.407049e+00
    9.789933e-01    8.906539e+01    6.513645e+00    5.374441e+07    1.888386e-08    4.943093e-11    1.833961e-08    3.157724e-09   -2.470000e+00    5.873765e-01    1.399101e+00
    9.847558e-01    9.287935e+01    6.450000e+00    5.353333e+07    1.888357e-08    4.804552e-11    1.832812e-08    3.156914e-09   -2.460000e+00    5.873765e-01    1.391162e+00
    9.905576e-01    9.676319e+01    6.386610e+00    5.332030e+07    1.888329e-08    4.670379e-11    1.831659e-08    3.156105e-09   -2.450000e+00    5.873765e-01    1.383231e+00
    9.964023e-01    1.007143e+02    6.323475e+00    5.310548e+07    1.888302e-08    4.540416e-11    1.830500e-08    3.155297e-09   -2.440000e+00    5.873765e-01    1.375309e+00
    1.002291e+00    1.047297e+02    6.260600e+00    5.288895e+07    1.888274e-08    4.414517e-11    1.829337e-08    3.154489e-09   -2.430000e+00    5.873765e-01    1.367395e+00
    1.008227e+00    1.088069e+02    6.197980e+00    5.267077e+07    1.888248e-08    4.292538e-11    1.828169e-08    3.153682e-09   -2.420000e+00    5.873765e-01    1.359490e+00
    1.014212e+00    1.129433e+02    6.135620e+00    5.245111e+07    1.888221e-08    4.174342e-11    1.826995e-08    3.152876e-09   -2.410000e+00    5.873765e-01    1.351593e+00
    1.020249e+00    1.171363e+02    6.073520e+00    5.223001e+07    1.888193e-08    4.059795e-11    1.825817e-08    3.152070e-09   -2.400000e+00    5.873765e-01    1.343705e+00
    1.026336e+00    1.213836e+02    6.011690e+00    5.200751e+07    1.888167e-08    3.948773e-11    1.824635e-08    3.151264e-09   -2.390000e+00    5.873765e-01    1.335826e+00
    1.032480e+00    1.256832e+02    5.950120e+00    5.178376e+07    1.888139e-08    3.841151e-11    1.823447e-08    3.150459e-09   -2.380000e+00    5.873765e-01    1.327954e+00
    1.038679e+00    1.300328e+02    5.888820e+00    5.155873e+07    1.888111e-08    3.736813e-11    1.822255e-08    3.149654e-09   -2.370000e+00    5.873765e-01    1.320092e+00
    1.044937e+00    1.344307e+02    5.827790e+00    5.133257e+07    1.888083e-08    3.635645e-11    1.821058e-08    3.148849e-09   -2.360000e+00    5.873765e-01    1.312237e+00
    1.051254e+00    1.388748e+02    5.767030e+00    5.110525e+07    1.888055e-08    3.537539e-11    1.819856e-08    3.148043e-09   -2.350000e+00    5.873765e-01    1.304392e+00
    1.057634e+00    1.433638e+02    5.706540e+00    5.087687e+07    1.888026e-08    3.442390e-11    1.818649e-08    3.147237e-09   -2.340000e+00    5.873765e-01    1.296554e+00
    1.064077e+00    1.478960e+02    5.646320e+00    5.064746e+07    1.887996e-08    3.350097e-11    1.817437e-08    3.146431e-09   -2.330000e+00    5.873765e-01    1.288725e+00
    1.070586e+00    1.524703e+02    5.586375e+00    5.041710e+07    1.887965e-08    3.260563e-11    1.816220e-08    3.145624e-09   -2.320000e+00    5.873765e-01    1.280904e+00
    1.077160e+00    1.570852e+02    5.526710e+00    5.018573e+07    1.887934e-08    3.173695e-11    1.814998e-08    3.144816e-09   -2.310000e+00    5.873765e-01    1.273092e+00
    1.083804e+00    1.617400e+02    5.467315e+00    4.995350e+07    1.887901e-08    3.089404e-11    1.813772e-08    3.144008e-09   -2.300000e+00    5.873765e-01    1.265288e+00
    1.090518e+00    1.664334e+02    5.408200e+00    4.972036e+07    1.887867e-08    3.007601e-11    1.812540e-08    3.143198e-09   -2.290000e+00    5.873765e-01    1.257493e+00
    1.097305e+00    1.711649e+02    5.349360e+00    4.948639e+07    1.887833e-08    2.928204e-11    1.811304e-08    3.142387e-09   -2.280000e+00    5.873765e-01    1.249705e+00
    1.104166e+00    1.759337e+02    5.290800e+00    4.925161e+07    1.887797e-08    2.851134e-11    1.810062e-08    3.141576e-09   -2.270000e+00    5.873765e-01    1.241926e+00
    1.111101e+00    1.807393e+02    5.232520e+00    4.901602e+07    1.887760e-08    2.776313e-11    1.808815e-08    3.140763e-09   -2.260000e+00    5.873765e-01    1.234156e+00
    1.118114e+00    1.855813e+02    5.174525e+00    4.877970e+07    1.887721e-08    2.703665e-11    1.807564e-08    3.139948e-09   -2.250000e+00    5.873765e-01    1.226393e+00
    1.125206e+00    1.904594e+02    5.116810e+00    4.854259e+07    1.887680e-08    2.633121e-11    1.806308e-08    3.139132e-09   -2.240000e+00    5.873765e-01    1.218639e+00
    1.132379e+00    1.953732e+02    5.059375e+00    4.830477e+07    1.887639e-08    2.564611e-11    1.805046e-08    3.138314e-09   -2.230000e+00    5.873765e-01    1.210893e+00
    1.139634e+00    2.003228e+02    5.002225e+00    4.806621e+07    1.887595e-08    2.498067e-11    1.803779e-08    3.137494e-09   -2.220000e+00    5.873765e-01    1.203155e+00
