# GF180MCU-D pfet_03v3 gm/ID Processed Lookup Table
# Corner: ff
# Temperature: 85C
# W = 2.0 um
# L = 0.28 um (280 nm)
# Columns: gm/id [1/V]  gm/gds [V/V]  id/W [A/m]  ft [Hz]  Cgg/W [F/m]  Cgd/W [F/m]  Cgs/W [F/m]  Cdb/W [F/m]  vgs [V]  vth [V]  vdsat [V]
# vdsat = BSIM saturation voltage (|VDS|_sat, positive); use for headroom / saturation / cascode-bias calculations
#           gm/id          gm/gds            id/W              ft           Cgg/W           Cgd/W           Cgs/W           Cdb/W             vgs             vth           vdsat
    3.665876e-01    1.352702e+00    2.263189e+02    1.306716e+10    1.010503e-09    6.767645e-11    7.961730e-10    1.092576e-10   -3.300000e+00    5.262683e-01    2.076575e+00
    3.690531e-01    1.369195e+00    2.254892e+02    1.312011e+10    1.009479e-09    6.559720e-11    7.968895e-10    1.090736e-10   -3.290000e+00    5.262683e-01    2.070036e+00
    3.715491e-01    1.386034e+00    2.246546e+02    1.317312e+10    1.008470e-09    6.355070e-11    7.975890e-10    1.088915e-10   -3.280000e+00    5.262683e-01    2.063496e+00
    3.740700e-01    1.403229e+00    2.238186e+02    1.322617e+10    1.007477e-09    6.153775e-11    7.982710e-10    1.087116e-10   -3.270000e+00    5.262683e-01    2.056953e+00
    3.766182e-01    1.420792e+00    2.229801e+02    1.327927e+10    1.006499e-09    5.955915e-11    7.989355e-10    1.085338e-10   -3.260000e+00    5.262683e-01    2.050408e+00
    3.791939e-01    1.438734e+00    2.221390e+02    1.333239e+10    1.005538e-09    5.761560e-11    7.995820e-10    1.083583e-10   -3.250000e+00    5.262683e-01    2.043861e+00
    3.817977e-01    1.457065e+00    2.212954e+02    1.338553e+10    1.004593e-09    5.570775e-11    8.002100e-10    1.081850e-10   -3.240000e+00    5.262683e-01    2.037312e+00
    3.844298e-01    1.475799e+00    2.204492e+02    1.343868e+10    1.003666e-09    5.383615e-11    8.008200e-10    1.080140e-10   -3.230000e+00    5.262683e-01    2.030760e+00
    3.870907e-01    1.494946e+00    2.196004e+02    1.349183e+10    1.002756e-09    5.200145e-11    8.014120e-10    1.078454e-10   -3.220000e+00    5.262683e-01    2.024206e+00
    3.897808e-01    1.514520e+00    2.187491e+02    1.354496e+10    1.001865e-09    5.020400e-11    8.019850e-10    1.076791e-10   -3.210000e+00    5.262683e-01    2.017649e+00
    3.925005e-01    1.534533e+00    2.178952e+02    1.359808e+10    1.000991e-09    4.844421e-11    8.025400e-10    1.075152e-10   -3.200000e+00    5.262683e-01    2.011091e+00
    3.952500e-01    1.554999e+00    2.170386e+02    1.365117e+10    1.000136e-09    4.672242e-11    8.030760e-10    1.073538e-10   -3.190000e+00    5.262683e-01    2.004530e+00
    3.980297e-01    1.575933e+00    2.161795e+02    1.370422e+10    9.992995e-10    4.503891e-11    8.035940e-10    1.071949e-10   -3.180000e+00    5.262683e-01    1.997966e+00
    4.008405e-01    1.597351e+00    2.153177e+02    1.375724e+10    9.984820e-10    4.339383e-11    8.040935e-10    1.070385e-10   -3.170000e+00    5.262683e-01    1.991401e+00
    4.036823e-01    1.619265e+00    2.144533e+02    1.381019e+10    9.976835e-10    4.178731e-11    8.045745e-10    1.068845e-10   -3.160000e+00    5.262683e-01    1.984832e+00
    4.065554e-01    1.641692e+00    2.135863e+02    1.386308e+10    9.969045e-10    4.021944e-11    8.050370e-10    1.067331e-10   -3.150000e+00    5.262683e-01    1.978262e+00
    4.094608e-01    1.664649e+00    2.127166e+02    1.391591e+10    9.961445e-10    3.869018e-11    8.054815e-10    1.065844e-10   -3.140000e+00    5.262683e-01    1.971689e+00
    4.123983e-01    1.688151e+00    2.118442e+02    1.396864e+10    9.954040e-10    3.719948e-11    8.059085e-10    1.064381e-10   -3.130000e+00    5.262683e-01    1.965114e+00
    4.153685e-01    1.712217e+00    2.109693e+02    1.402131e+10    9.946825e-10    3.574721e-11    8.063170e-10    1.062945e-10   -3.120000e+00    5.262683e-01    1.958536e+00
    4.183719e-01    1.736866e+00    2.100917e+02    1.407387e+10    9.939805e-10    3.433318e-11    8.067080e-10    1.061535e-10   -3.110000e+00    5.262683e-01    1.951955e+00
    4.214088e-01    1.762114e+00    2.092114e+02    1.412633e+10    9.932980e-10    3.295715e-11    8.070815e-10    1.060150e-10   -3.100000e+00    5.262683e-01    1.945372e+00
    4.244796e-01    1.787983e+00    2.083284e+02    1.417869e+10    9.926345e-10    3.161882e-11    8.074375e-10    1.058791e-10   -3.090000e+00    5.262683e-01    1.938787e+00
    4.275845e-01    1.814490e+00    2.074428e+02    1.423092e+10    9.919900e-10    3.031784e-11    8.077770e-10    1.057459e-10   -3.080000e+00    5.262683e-01    1.932199e+00
    4.307243e-01    1.841657e+00    2.065544e+02    1.428304e+10    9.913645e-10    2.905383e-11    8.080995e-10    1.056152e-10   -3.070000e+00    5.262683e-01    1.925609e+00
    4.338988e-01    1.869504e+00    2.056634e+02    1.433501e+10    9.907580e-10    2.782634e-11    8.084055e-10    1.054871e-10   -3.060000e+00    5.262683e-01    1.919016e+00
    4.371090e-01    1.898054e+00    2.047697e+02    1.438685e+10    9.901700e-10    2.663490e-11    8.086955e-10    1.053615e-10   -3.050000e+00    5.262683e-01    1.912420e+00
    4.403547e-01    1.927329e+00    2.038733e+02    1.443854e+10    9.896000e-10    2.547898e-11    8.089695e-10    1.052385e-10   -3.040000e+00    5.262683e-01    1.905822e+00
    4.436365e-01    1.957352e+00    2.029742e+02    1.449007e+10    9.890485e-10    2.435803e-11    8.092280e-10    1.051180e-10   -3.030000e+00    5.262683e-01    1.899221e+00
    4.469549e-01    1.988146e+00    2.020723e+02    1.454144e+10    9.885145e-10    2.327147e-11    8.094710e-10    1.050000e-10   -3.020000e+00    5.262683e-01    1.892618e+00
    4.503096e-01    2.019735e+00    2.011678e+02    1.459263e+10    9.879985e-10    2.221869e-11    8.096995e-10    1.048845e-10   -3.010000e+00    5.262683e-01    1.886012e+00
    4.537017e-01    2.052145e+00    2.002606e+02    1.464364e+10    9.874995e-10    2.119903e-11    8.099130e-10    1.047714e-10   -3.000000e+00    5.262683e-01    1.879403e+00
    4.571308e-01    2.085400e+00    1.993506e+02    1.469445e+10    9.870175e-10    2.021184e-11    8.101125e-10    1.046608e-10   -2.990000e+00    5.262683e-01    1.872792e+00
    4.605974e-01    2.119525e+00    1.984380e+02    1.474505e+10    9.865525e-10    1.925644e-11    8.102980e-10    1.045526e-10   -2.980000e+00    5.262683e-01    1.866178e+00
    4.641018e-01    2.154548e+00    1.975226e+02    1.479543e+10    9.861035e-10    1.833214e-11    8.104705e-10    1.044467e-10   -2.970000e+00    5.262683e-01    1.859561e+00
    4.676441e-01    2.190494e+00    1.966045e+02    1.484559e+10    9.856705e-10    1.743822e-11    8.106290e-10    1.043431e-10   -2.960000e+00    5.262683e-01    1.852941e+00
    4.712242e-01    2.227390e+00    1.956838e+02    1.489548e+10    9.852535e-10    1.657395e-11    8.107750e-10    1.042418e-10   -2.950000e+00    5.262683e-01    1.846319e+00
    4.748428e-01    2.265263e+00    1.947604e+02    1.494513e+10    9.848515e-10    1.573862e-11    8.109085e-10    1.041427e-10   -2.940000e+00    5.262683e-01    1.839694e+00
    4.784997e-01    2.304140e+00    1.938342e+02    1.499451e+10    9.844640e-10    1.493147e-11    8.110300e-10    1.040460e-10   -2.930000e+00    5.262683e-01    1.833066e+00
    4.821950e-01    2.344049e+00    1.929054e+02    1.504360e+10    9.840915e-10    1.415177e-11    8.111395e-10    1.039513e-10   -2.920000e+00    5.262683e-01    1.826435e+00
    4.859287e-01    2.385016e+00    1.919739e+02    1.509237e+10    9.837330e-10    1.339879e-11    8.112380e-10    1.038588e-10   -2.910000e+00    5.262683e-01    1.819801e+00
    4.897010e-01    2.427069e+00    1.910397e+02    1.514082e+10    9.833885e-10    1.267177e-11    8.113250e-10    1.037683e-10   -2.900000e+00    5.262683e-01    1.813165e+00
    4.935114e-01    2.470232e+00    1.901028e+02    1.518893e+10    9.830570e-10    1.196999e-11    8.114010e-10    1.036800e-10   -2.890000e+00    5.262683e-01    1.806525e+00
    4.973605e-01    2.514533e+00    1.891633e+02    1.523667e+10    9.827390e-10    1.129270e-11    8.114670e-10    1.035936e-10   -2.880000e+00    5.262683e-01    1.799883e+00
    5.012473e-01    2.559995e+00    1.882211e+02    1.528402e+10    9.824330e-10    1.063919e-11    8.115225e-10    1.035092e-10   -2.870000e+00    5.262683e-01    1.793238e+00
    5.051723e-01    2.606643e+00    1.872764e+02    1.533096e+10    9.821400e-10    1.000873e-11    8.115685e-10    1.034267e-10   -2.860000e+00    5.262683e-01    1.786589e+00
    5.091349e-01    2.654500e+00    1.863290e+02    1.537746e+10    9.818585e-10    9.400605e-12    8.116045e-10    1.033460e-10   -2.850000e+00    5.262683e-01    1.779938e+00
    5.131348e-01    2.703586e+00    1.853791e+02    1.542350e+10    9.815885e-10    8.814125e-12    8.116315e-10    1.032672e-10   -2.840000e+00    5.262683e-01    1.773284e+00
    5.171720e-01    2.753923e+00    1.844266e+02    1.546905e+10    9.813295e-10    8.248590e-12    8.116500e-10    1.031901e-10   -2.830000e+00    5.262683e-01    1.766627e+00
    5.212457e-01    2.805526e+00    1.834715e+02    1.551408e+10    9.810815e-10    7.703330e-12    8.116595e-10    1.031148e-10   -2.820000e+00    5.262683e-01    1.759967e+00
    5.253557e-01    2.858414e+00    1.825139e+02    1.555856e+10    9.808440e-10    7.177670e-12    8.116610e-10    1.030412e-10   -2.810000e+00    5.262683e-01    1.753303e+00
    5.295012e-01    2.912596e+00    1.815538e+02    1.560247e+10    9.806160e-10    6.670965e-12    8.116540e-10    1.029692e-10   -2.800000e+00    5.262683e-01    1.746637e+00
    5.336822e-01    2.968087e+00    1.805912e+02    1.564576e+10    9.803985e-10    6.182575e-12    8.116395e-10    1.028989e-10   -2.790000e+00    5.262683e-01    1.739968e+00
    5.378974e-01    3.024891e+00    1.796263e+02    1.568842e+10    9.801900e-10    5.711875e-12    8.116175e-10    1.028301e-10   -2.780000e+00    5.262683e-01    1.733295e+00
    5.421468e-01    3.083014e+00    1.786588e+02    1.573039e+10    9.799905e-10    5.258255e-12    8.115880e-10    1.027628e-10   -2.770000e+00    5.262683e-01    1.726619e+00
    5.464293e-01    3.142457e+00    1.776891e+02    1.577166e+10    9.798000e-10    4.821123e-12    8.115515e-10    1.026970e-10   -2.760000e+00    5.262683e-01    1.719940e+00
    5.507443e-01    3.203217e+00    1.767169e+02    1.581217e+10    9.796180e-10    4.399900e-12    8.115085e-10    1.026326e-10   -2.750000e+00    5.262683e-01    1.713258e+00
    5.550915e-01    3.265291e+00    1.757425e+02    1.585193e+10    9.794435e-10    3.994023e-12    8.114585e-10    1.025696e-10   -2.740000e+00    5.262683e-01    1.706573e+00
    5.594696e-01    3.328665e+00    1.747659e+02    1.589086e+10    9.792775e-10    3.602947e-12    8.114020e-10    1.025079e-10   -2.730000e+00    5.262683e-01    1.699884e+00
    5.638780e-01    3.393329e+00    1.737870e+02    1.592896e+10    9.791185e-10    3.226137e-12    8.113400e-10    1.024476e-10   -2.720000e+00    5.262683e-01    1.693192e+00
    5.683162e-01    3.459262e+00    1.728060e+02    1.596618e+10    9.789670e-10    2.863080e-12    8.112715e-10    1.023886e-10   -2.710000e+00    5.262683e-01    1.686497e+00
    5.727834e-01    3.526448e+00    1.718229e+02    1.600249e+10    9.788225e-10    2.513275e-12    8.111975e-10    1.023307e-10   -2.700000e+00    5.262683e-01    1.679799e+00
    5.772786e-01    3.594856e+00    1.708377e+02    1.603787e+10    9.786845e-10    2.176237e-12    8.111180e-10    1.022740e-10   -2.690000e+00    5.262683e-01    1.673097e+00
    5.818016e-01    3.664465e+00    1.698505e+02    1.607228e+10    9.785530e-10    1.851499e-12    8.110330e-10    1.022186e-10   -2.680000e+00    5.262683e-01    1.666392e+00
    5.863513e-01    3.735237e+00    1.688613e+02    1.610570e+10    9.784275e-10    1.538605e-12    8.109425e-10    1.021643e-10   -2.670000e+00    5.262683e-01    1.659683e+00
    5.909275e-01    3.807142e+00    1.678703e+02    1.613810e+10    9.783080e-10    1.237115e-12    8.108475e-10    1.021110e-10   -2.660000e+00    5.262683e-01    1.652971e+00
    5.955296e-01    3.880145e+00    1.668774e+02    1.616947e+10    9.781945e-10    9.466070e-13    8.107470e-10    1.020588e-10   -2.650000e+00    5.262683e-01    1.646256e+00
    6.001568e-01    3.954201e+00    1.658827e+02    1.619977e+10    9.780860e-10    6.666700e-13    8.106420e-10    1.020076e-10   -2.640000e+00    5.262683e-01    1.639537e+00
    6.048094e-01    4.029278e+00    1.648863e+02    1.622900e+10    9.779830e-10    3.969080e-13    8.105325e-10    1.019574e-10   -2.630000e+00    5.262683e-01    1.632814e+00
    6.094862e-01    4.105327e+00    1.638882e+02    1.625714e+10    9.778845e-10    1.369392e-13    8.104185e-10    1.019081e-10   -2.620000e+00    5.262683e-01    1.626088e+00
    6.141877e-01    4.182310e+00    1.628886e+02    1.628418e+10    9.777910e-10    1.136049e-13    8.103005e-10    1.018598e-10   -2.610000e+00    5.262683e-01    1.619359e+00
    6.189140e-01    4.260187e+00    1.618873e+02    1.631010e+10    9.777025e-10    3.550797e-13    8.101775e-10    1.018124e-10   -2.600000e+00    5.262683e-01    1.612626e+00
    6.236645e-01    4.338910e+00    1.608847e+02    1.633490e+10    9.776180e-10    5.878275e-13    8.100510e-10    1.017658e-10   -2.590000e+00    5.262683e-01    1.605889e+00
    6.284393e-01    4.418441e+00    1.598806e+02    1.635859e+10    9.775375e-10    8.121790e-13    8.099205e-10    1.017200e-10   -2.580000e+00    5.262683e-01    1.599149e+00
    6.332392e-01    4.498743e+00    1.588752e+02    1.638116e+10    9.774610e-10    1.028451e-12    8.097860e-10    1.016751e-10   -2.570000e+00    5.262683e-01    1.592405e+00
    6.380640e-01    4.579774e+00    1.578685e+02    1.640260e+10    9.773885e-10    1.236950e-12    8.096480e-10    1.016309e-10   -2.560000e+00    5.262683e-01    1.585657e+00
    6.429142e-01    4.661499e+00    1.568606e+02    1.642292e+10    9.773195e-10    1.437972e-12    8.095060e-10    1.015875e-10   -2.550000e+00    5.262683e-01    1.578906e+00
    6.477902e-01    4.743884e+00    1.558516e+02    1.644213e+10    9.772540e-10    1.631797e-12    8.093605e-10    1.015447e-10   -2.540000e+00    5.262683e-01    1.572151e+00
    6.526928e-01    4.826900e+00    1.548415e+02    1.646024e+10    9.771920e-10    1.818702e-12    8.092120e-10    1.015027e-10   -2.530000e+00    5.262683e-01    1.565392e+00
    6.576224e-01    4.910516e+00    1.538303e+02    1.647726e+10    9.771330e-10    1.998948e-12    8.090595e-10    1.014614e-10   -2.520000e+00    5.262683e-01    1.558629e+00
    6.625801e-01    4.994707e+00    1.528182e+02    1.649320e+10    9.770765e-10    2.172785e-12    8.089040e-10    1.014206e-10   -2.510000e+00    5.262683e-01    1.551863e+00
    6.675665e-01    5.079453e+00    1.518053e+02    1.650808e+10    9.770235e-10    2.340460e-12    8.087455e-10    1.013806e-10   -2.500000e+00    5.262683e-01    1.545092e+00
    6.725822e-01    5.164730e+00    1.507914e+02    1.652189e+10    9.769730e-10    2.502203e-12    8.085835e-10    1.013411e-10   -2.490000e+00    5.262683e-01    1.538318e+00
    6.776291e-01    5.250528e+00    1.497768e+02    1.653467e+10    9.769250e-10    2.658239e-12    8.084185e-10    1.013022e-10   -2.480000e+00    5.262683e-01    1.531540e+00
    6.827071e-01    5.336829e+00    1.487616e+02    1.654644e+10    9.768790e-10    2.808784e-12    8.082505e-10    1.012639e-10   -2.470000e+00    5.262683e-01    1.524757e+00
    6.878180e-01    5.423624e+00    1.477457e+02    1.655720e+10    9.768360e-10    2.954046e-12    8.080795e-10    1.012261e-10   -2.460000e+00    5.262683e-01    1.517971e+00
    6.929625e-01    5.510904e+00    1.467292e+02    1.656697e+10    9.767945e-10    3.094222e-12    8.079055e-10    1.011888e-10   -2.450000e+00    5.262683e-01    1.511181e+00
    6.981422e-01    5.598670e+00    1.457121e+02    1.657578e+10    9.767555e-10    3.229506e-12    8.077290e-10    1.011519e-10   -2.440000e+00    5.262683e-01    1.504387e+00
    7.033577e-01    5.686912e+00    1.446947e+02    1.658363e+10    9.767180e-10    3.360080e-12    8.075495e-10    1.011157e-10   -2.430000e+00    5.262683e-01    1.497589e+00
    7.086107e-01    5.775632e+00    1.436767e+02    1.659054e+10    9.766830e-10    3.486120e-12    8.073670e-10    1.010798e-10   -2.420000e+00    5.262683e-01    1.490786e+00
    7.139023e-01    5.864838e+00    1.426585e+02    1.659655e+10    9.766490e-10    3.607796e-12    8.071825e-10    1.010444e-10   -2.410000e+00    5.262683e-01    1.483980e+00
    7.192337e-01    5.954526e+00    1.416399e+02    1.660165e+10    9.766170e-10    3.725271e-12    8.069945e-10    1.010093e-10   -2.400000e+00    5.262683e-01    1.477169e+00
    7.246066e-01    6.044709e+00    1.406210e+02    1.660588e+10    9.765865e-10    3.838703e-12    8.068045e-10    1.009748e-10   -2.390000e+00    5.262683e-01    1.470354e+00
    7.300217e-01    6.135390e+00    1.396019e+02    1.660924e+10    9.765570e-10    3.948240e-12    8.066120e-10    1.009405e-10   -2.380000e+00    5.262683e-01    1.463535e+00
    7.354805e-01    6.226580e+00    1.385828e+02    1.661175e+10    9.765290e-10    4.054028e-12    8.064165e-10    1.009067e-10   -2.370000e+00    5.262683e-01    1.456711e+00
    7.409843e-01    6.318286e+00    1.375635e+02    1.661342e+10    9.765025e-10    4.156204e-12    8.062185e-10    1.008732e-10   -2.360000e+00    5.262683e-01    1.449883e+00
    7.465351e-01    6.410524e+00    1.365442e+02    1.661428e+10    9.764770e-10    4.254902e-12    8.060185e-10    1.008401e-10   -2.350000e+00    5.262683e-01    1.443051e+00
    7.521339e-01    6.503309e+00    1.355248e+02    1.661434e+10    9.764520e-10    4.350250e-12    8.058155e-10    1.008072e-10   -2.340000e+00    5.262683e-01    1.436215e+00
    7.577817e-01    6.596644e+00    1.345055e+02    1.661360e+10    9.764285e-10    4.442371e-12    8.056105e-10    1.007747e-10   -2.330000e+00    5.262683e-01    1.429374e+00
    7.634802e-01    6.690553e+00    1.334863e+02    1.661209e+10    9.764055e-10    4.531382e-12    8.054030e-10    1.007425e-10   -2.320000e+00    5.262683e-01    1.422528e+00
    7.692309e-01    6.785047e+00    1.324673e+02    1.660982e+10    9.763835e-10    4.617397e-12    8.051930e-10    1.007106e-10   -2.310000e+00    5.262683e-01    1.415678e+00
    7.750352e-01    6.880141e+00    1.314484e+02    1.660679e+10    9.763625e-10    4.700524e-12    8.049805e-10    1.006789e-10   -2.300000e+00    5.262683e-01    1.408824e+00
    7.808942e-01    6.975850e+00    1.304297e+02    1.660302e+10    9.763415e-10    4.780868e-12    8.047660e-10    1.006475e-10   -2.290000e+00    5.262683e-01    1.401965e+00
    7.868097e-01    7.072192e+00    1.294113e+02    1.659852e+10    9.763215e-10    4.858530e-12    8.045490e-10    1.006163e-10   -2.280000e+00    5.262683e-01    1.395101e+00
    7.927828e-01    7.169181e+00    1.283933e+02    1.659329e+10    9.763020e-10    4.933607e-12    8.043295e-10    1.005854e-10   -2.270000e+00    5.262683e-01    1.388233e+00
    7.988159e-01    7.266838e+00    1.273756e+02    1.658737e+10    9.762825e-10    5.006190e-12    8.041080e-10    1.005547e-10   -2.260000e+00    5.262683e-01    1.381360e+00
    8.049091e-01    7.365175e+00    1.263583e+02    1.658073e+10    9.762635e-10    5.076365e-12    8.038840e-10    1.005242e-10   -2.250000e+00    5.262683e-01    1.374482e+00
    8.110653e-01    7.464214e+00    1.253414e+02    1.657341e+10    9.762450e-10    5.144225e-12    8.036580e-10    1.004939e-10   -2.240000e+00    5.262683e-01    1.367600e+00
    8.172851e-01    7.563968e+00    1.243251e+02    1.656540e+10    9.762265e-10    5.209850e-12    8.034295e-10    1.004638e-10   -2.230000e+00    5.262683e-01    1.360713e+00
    8.235701e-01    7.664456e+00    1.233093e+02    1.655671e+10    9.762085e-10    5.273315e-12    8.031985e-10    1.004338e-10   -2.220000e+00    5.262683e-01    1.353821e+00
