# GF180MCU-D pfet_03v3 gm/ID Processed Lookup Table
# Corner: ff
# Temperature: 85C
# W = 2.0 um
# L = 6 um (6000 nm)
# Columns: gm/id [1/V]  gm/gds [V/V]  id/W [A/m]  ft [Hz]  Cgg/W [F/m]  Cgd/W [F/m]  Cgs/W [F/m]  Cdb/W [F/m]  vgs [V]  vth [V]  vdsat [V]
# vdsat = BSIM saturation voltage (|VDS|_sat, positive); use for headroom / saturation / cascode-bias calculations
#           gm/id          gm/gds            id/W              ft           Cgg/W           Cgd/W           Cgs/W           Cdb/W             vgs             vth           vdsat
    5.327943e-01    2.516247e+00    1.108151e+01    4.492493e+07    2.091661e-08    8.139815e-10    2.066346e-08    3.526745e-09   -3.300000e+00    5.870466e-01    2.086991e+00
    5.368211e-01    2.567612e+00    1.102247e+01    4.505147e+07    2.090354e-08    7.871030e-10    2.066528e-08    3.526075e-09   -3.290000e+00    5.870466e-01    2.078287e+00
    5.409029e-01    2.620920e+00    1.096317e+01    4.517720e+07    2.089086e-08    7.609920e-10    2.066667e-08    3.525380e-09   -3.280000e+00    5.870466e-01    2.069593e+00
    5.450304e-01    2.676275e+00    1.090381e+01    4.530210e+07    2.087856e-08    7.356390e-10    2.066762e-08    3.524659e-09   -3.270000e+00    5.870466e-01    2.060908e+00
    5.492083e-01    2.733798e+00    1.084431e+01    4.542620e+07    2.086665e-08    7.110340e-10    2.066815e-08    3.523913e-09   -3.260000e+00    5.870466e-01    2.052234e+00
    5.534364e-01    2.793608e+00    1.078469e+01    4.554944e+07    2.085511e-08    6.871645e-10    2.066827e-08    3.523145e-09   -3.250000e+00    5.870466e-01    2.043570e+00
    5.577155e-01    2.855838e+00    1.072494e+01    4.567176e+07    2.084395e-08    6.640195e-10    2.066798e-08    3.522354e-09   -3.240000e+00    5.870466e-01    2.034915e+00
    5.620465e-01    2.920631e+00    1.066506e+01    4.579319e+07    2.083315e-08    6.415855e-10    2.066730e-08    3.521540e-09   -3.230000e+00    5.870466e-01    2.026271e+00
    5.664297e-01    2.988138e+00    1.060505e+01    4.591364e+07    2.082270e-08    6.198495e-10    2.066622e-08    3.520708e-09   -3.220000e+00    5.870466e-01    2.017637e+00
    5.708659e-01    3.058528e+00    1.054492e+01    4.603317e+07    2.081262e-08    5.987985e-10    2.066477e-08    3.519855e-09   -3.210000e+00    5.870466e-01    2.009012e+00
    5.753558e-01    3.131975e+00    1.048466e+01    4.615169e+07    2.080288e-08    5.784175e-10    2.066294e-08    3.518984e-09   -3.200000e+00    5.870466e-01    2.000398e+00
    5.798996e-01    3.208670e+00    1.042427e+01    4.626915e+07    2.079348e-08    5.586925e-10    2.066076e-08    3.518095e-09   -3.190000e+00    5.870466e-01    1.991793e+00
    5.844986e-01    3.288823e+00    1.036375e+01    4.638558e+07    2.078441e-08    5.396080e-10    2.065822e-08    3.517190e-09   -3.180000e+00    5.870466e-01    1.983199e+00
    5.891521e-01    3.372653e+00    1.030312e+01    4.650090e+07    2.077566e-08    5.211500e-10    2.065534e-08    3.516270e-09   -3.170000e+00    5.870466e-01    1.974614e+00
    5.938615e-01    3.460403e+00    1.024236e+01    4.661507e+07    2.076724e-08    5.033030e-10    2.065212e-08    3.515335e-09   -3.160000e+00    5.870466e-01    1.966039e+00
    5.986262e-01    3.552329e+00    1.018147e+01    4.672801e+07    2.075913e-08    4.860517e-10    2.064858e-08    3.514387e-09   -3.150000e+00    5.870466e-01    1.957473e+00
    6.034479e-01    3.648719e+00    1.012046e+01    4.683974e+07    2.075131e-08    4.693805e-10    2.064473e-08    3.513427e-09   -3.140000e+00    5.870466e-01    1.948918e+00
    6.083261e-01    3.749876e+00    1.005933e+01    4.695016e+07    2.074380e-08    4.532740e-10    2.064057e-08    3.512455e-09   -3.130000e+00    5.870466e-01    1.940372e+00
    6.132609e-01    3.856131e+00    9.998070e+00    4.705921e+07    2.073657e-08    4.377168e-10    2.063612e-08    3.511473e-09   -3.120000e+00    5.870466e-01    1.931837e+00
    6.182528e-01    3.967846e+00    9.936695e+00    4.716684e+07    2.072963e-08    4.226936e-10    2.063137e-08    3.510481e-09   -3.110000e+00    5.870466e-01    1.923310e+00
    6.233010e-01    4.085405e+00    9.875205e+00    4.727294e+07    2.072294e-08    4.081890e-10    2.062635e-08    3.509481e-09   -3.100000e+00    5.870466e-01    1.914794e+00
    6.284068e-01    4.209243e+00    9.813595e+00    4.737749e+07    2.071654e-08    3.941878e-10    2.062106e-08    3.508474e-09   -3.090000e+00    5.870466e-01    1.906287e+00
    6.335691e-01    4.339812e+00    9.751865e+00    4.748033e+07    2.071038e-08    3.806750e-10    2.061551e-08    3.507459e-09   -3.080000e+00    5.870466e-01    1.897790e+00
    6.387878e-01    4.477623e+00    9.690025e+00    4.758144e+07    2.070447e-08    3.676357e-10    2.060970e-08    3.506438e-09   -3.070000e+00    5.870466e-01    1.889303e+00
    6.440621e-01    4.623212e+00    9.628070e+00    4.768061e+07    2.069880e-08    3.550552e-10    2.060364e-08    3.505412e-09   -3.060000e+00    5.870466e-01    1.880825e+00
    6.493923e-01    4.777188e+00    9.566005e+00    4.777784e+07    2.069337e-08    3.429190e-10    2.059736e-08    3.504382e-09   -3.050000e+00    5.870466e-01    1.872357e+00
    6.547771e-01    4.940192e+00    9.503830e+00    4.787296e+07    2.068817e-08    3.312131e-10    2.059083e-08    3.503348e-09   -3.040000e+00    5.870466e-01    1.863899e+00
    6.602161e-01    5.112935e+00    9.441545e+00    4.796583e+07    2.068318e-08    3.199232e-10    2.058410e-08    3.502310e-09   -3.030000e+00    5.870466e-01    1.855450e+00
    6.657073e-01    5.296189e+00    9.379160e+00    4.805631e+07    2.067840e-08    3.090358e-10    2.057714e-08    3.501271e-09   -3.020000e+00    5.870466e-01    1.847011e+00
    6.712506e-01    5.490797e+00    9.316670e+00    4.814427e+07    2.067383e-08    2.985374e-10    2.056998e-08    3.500228e-09   -3.010000e+00    5.870466e-01    1.838581e+00
    6.768427e-01    5.697668e+00    9.254085e+00    4.822945e+07    2.066946e-08    2.884150e-10    2.056262e-08    3.499186e-09   -3.000000e+00    5.870466e-01    1.830161e+00
    6.824842e-01    5.917815e+00    9.191400e+00    4.831181e+07    2.066527e-08    2.786558e-10    2.055507e-08    3.498142e-09   -2.990000e+00    5.870466e-01    1.821751e+00
    6.881710e-01    6.152321e+00    9.128625e+00    4.839103e+07    2.066127e-08    2.692471e-10    2.054732e-08    3.497098e-09   -2.980000e+00    5.870466e-01    1.813350e+00
    6.939021e-01    6.402372e+00    9.065760e+00    4.846698e+07    2.065745e-08    2.601769e-10    2.053940e-08    3.496054e-09   -2.970000e+00    5.870466e-01    1.804958e+00
    6.996749e-01    6.669264e+00    9.002810e+00    4.853943e+07    2.065380e-08    2.514334e-10    2.053131e-08    3.495011e-09   -2.960000e+00    5.870466e-01    1.796576e+00
    7.054860e-01    6.954400e+00    8.939780e+00    4.860813e+07    2.065031e-08    2.430049e-10    2.052305e-08    3.493969e-09   -2.950000e+00    5.870466e-01    1.788203e+00
    7.113334e-01    7.259310e+00    8.876675e+00    4.867290e+07    2.064698e-08    2.348802e-10    2.051462e-08    3.492929e-09   -2.940000e+00    5.870466e-01    1.779840e+00
    7.172128e-01    7.585648e+00    8.813500e+00    4.873342e+07    2.064380e-08    2.270486e-10    2.050603e-08    3.491890e-09   -2.930000e+00    5.870466e-01    1.771486e+00
    7.231212e-01    7.935203e+00    8.750255e+00    4.878946e+07    2.064077e-08    2.194994e-10    2.049731e-08    3.490853e-09   -2.920000e+00    5.870466e-01    1.763142e+00
    7.290557e-01    8.309933e+00    8.686950e+00    4.884083e+07    2.063788e-08    2.122223e-10    2.048842e-08    3.489819e-09   -2.910000e+00    5.870466e-01    1.754807e+00
    7.350106e-01    8.711900e+00    8.623590e+00    4.888715e+07    2.063513e-08    2.052075e-10    2.047940e-08    3.488787e-09   -2.900000e+00    5.870466e-01    1.746481e+00
    7.409828e-01    9.143380e+00    8.560185e+00    4.892824e+07    2.063250e-08    1.984454e-10    2.047024e-08    3.487758e-09   -2.890000e+00    5.870466e-01    1.738165e+00
    7.469687e-01    9.606793e+00    8.496735e+00    4.896383e+07    2.063000e-08    1.919266e-10    2.046094e-08    3.486733e-09   -2.880000e+00    5.870466e-01    1.729858e+00
    7.529624e-01    1.010471e+01    8.433250e+00    4.899359e+07    2.062762e-08    1.856422e-10    2.045153e-08    3.485710e-09   -2.870000e+00    5.870466e-01    1.721560e+00
    7.589603e-01    1.063990e+01    8.369740e+00    4.901734e+07    2.062536e-08    1.795835e-10    2.044198e-08    3.484691e-09   -2.860000e+00    5.870466e-01    1.713272e+00
    7.649582e-01    1.121528e+01    8.306205e+00    4.903481e+07    2.062320e-08    1.737421e-10    2.043232e-08    3.483677e-09   -2.850000e+00    5.870466e-01    1.704993e+00
    7.709509e-01    1.183397e+01    8.242665e+00    4.904578e+07    2.062115e-08    1.681099e-10    2.042254e-08    3.482665e-09   -2.840000e+00    5.870466e-01    1.696723e+00
    7.769355e-01    1.249924e+01    8.179115e+00    4.905006e+07    2.061921e-08    1.626791e-10    2.041264e-08    3.481658e-09   -2.830000e+00    5.870466e-01    1.688462e+00
    7.829057e-01    1.321449e+01    8.115575e+00    4.904741e+07    2.061735e-08    1.574421e-10    2.040264e-08    3.480654e-09   -2.820000e+00    5.870466e-01    1.680211e+00
    7.888598e-01    1.398330e+01    8.052045e+00    4.903772e+07    2.061560e-08    1.523917e-10    2.039254e-08    3.479655e-09   -2.810000e+00    5.870466e-01    1.671969e+00
    7.947929e-01    1.480937e+01    7.988540e+00    4.902085e+07    2.061393e-08    1.475209e-10    2.038232e-08    3.478659e-09   -2.800000e+00    5.870466e-01    1.663736e+00
    8.007026e-01    1.569651e+01    7.925065e+00    4.899671e+07    2.061234e-08    1.428229e-10    2.037202e-08    3.477668e-09   -2.790000e+00    5.870466e-01    1.655512e+00
    8.065859e-01    1.664862e+01    7.861630e+00    4.896523e+07    2.061084e-08    1.382911e-10    2.036161e-08    3.476681e-09   -2.780000e+00    5.870466e-01    1.647297e+00
    8.124405e-01    1.766965e+01    7.798245e+00    4.892637e+07    2.060941e-08    1.339194e-10    2.035111e-08    3.475698e-09   -2.770000e+00    5.870466e-01    1.639092e+00
    8.182638e-01    1.876358e+01    7.734920e+00    4.888012e+07    2.060805e-08    1.297017e-10    2.034052e-08    3.474720e-09   -2.760000e+00    5.870466e-01    1.630895e+00
    8.240558e-01    1.993443e+01    7.671665e+00    4.882659e+07    2.060678e-08    1.256322e-10    2.032984e-08    3.473745e-09   -2.750000e+00    5.870466e-01    1.622708e+00
    8.298150e-01    2.118610e+01    7.608485e+00    4.876578e+07    2.060556e-08    1.217052e-10    2.031908e-08    3.472774e-09   -2.740000e+00    5.870466e-01    1.614530e+00
    8.355408e-01    2.252249e+01    7.545395e+00    4.869784e+07    2.060441e-08    1.179155e-10    2.030823e-08    3.471809e-09   -2.730000e+00    5.870466e-01    1.606361e+00
    8.412341e-01    2.394733e+01    7.482400e+00    4.862290e+07    2.060332e-08    1.142578e-10    2.029730e-08    3.470846e-09   -2.720000e+00    5.870466e-01    1.598201e+00
    8.468961e-01    2.546424e+01    7.419505e+00    4.854112e+07    2.060229e-08    1.107272e-10    2.028629e-08    3.469889e-09   -2.710000e+00    5.870466e-01    1.590049e+00
    8.525269e-01    2.707660e+01    7.356730e+00    4.845273e+07    2.060131e-08    1.073189e-10    2.027520e-08    3.468935e-09   -2.700000e+00    5.870466e-01    1.581907e+00
    8.581280e-01    2.878756e+01    7.294075e+00    4.835787e+07    2.060038e-08    1.040282e-10    2.026403e-08    3.467985e-09   -2.690000e+00    5.870466e-01    1.573774e+00
    8.637034e-01    3.060005e+01    7.231545e+00    4.825687e+07    2.059950e-08    1.008507e-10    2.025280e-08    3.467039e-09   -2.680000e+00    5.870466e-01    1.565650e+00
    8.692532e-01    3.251663e+01    7.169160e+00    4.814991e+07    2.059867e-08    9.778230e-11    2.024149e-08    3.466096e-09   -2.670000e+00    5.870466e-01    1.557535e+00
    8.747811e-01    3.453956e+01    7.106915e+00    4.803724e+07    2.059789e-08    9.481875e-11    2.023011e-08    3.465158e-09   -2.660000e+00    5.870466e-01    1.549429e+00
    8.802908e-01    3.667077e+01    7.044820e+00    4.791917e+07    2.059714e-08    9.195620e-11    2.021865e-08    3.464224e-09   -2.650000e+00    5.870466e-01    1.541332e+00
    8.857836e-01    3.891177e+01    6.982885e+00    4.779588e+07    2.059644e-08    8.919085e-11    2.020714e-08    3.463292e-09   -2.640000e+00    5.870466e-01    1.533244e+00
    8.912639e-01    4.126370e+01    6.921115e+00    4.766773e+07    2.059577e-08    8.651910e-11    2.019555e-08    3.462364e-09   -2.630000e+00    5.870466e-01    1.525164e+00
    8.967354e-01    4.372737e+01    6.859515e+00    4.753496e+07    2.059514e-08    8.393745e-11    2.018390e-08    3.461440e-09   -2.620000e+00    5.870466e-01    1.517094e+00
    9.021998e-01    4.630305e+01    6.798095e+00    4.739778e+07    2.059454e-08    8.144250e-11    2.017218e-08    3.460519e-09   -2.610000e+00    5.870466e-01    1.509032e+00
    9.076617e-01    4.899075e+01    6.736855e+00    4.725647e+07    2.059397e-08    7.903110e-11    2.016040e-08    3.459601e-09   -2.600000e+00    5.870466e-01    1.500980e+00
    9.131250e-01    5.179008e+01    6.675800e+00    4.711129e+07    2.059343e-08    7.670015e-11    2.014857e-08    3.458685e-09   -2.590000e+00    5.870466e-01    1.492936e+00
    9.185926e-01    5.470028e+01    6.614940e+00    4.696249e+07    2.059292e-08    7.444665e-11    2.013667e-08    3.457773e-09   -2.580000e+00    5.870466e-01    1.484901e+00
    9.240671e-01    5.772012e+01    6.554275e+00    4.681022e+07    2.059243e-08    7.226770e-11    2.012470e-08    3.456864e-09   -2.570000e+00    5.870466e-01    1.476874e+00
    9.295521e-01    6.084819e+01    6.493810e+00    4.665473e+07    2.059197e-08    7.016070e-11    2.011268e-08    3.455957e-09   -2.560000e+00    5.870466e-01    1.468857e+00
    9.350522e-01    6.408286e+01    6.433550e+00    4.649629e+07    2.059152e-08    6.812285e-11    2.010060e-08    3.455052e-09   -2.550000e+00    5.870466e-01    1.460848e+00
    9.405687e-01    6.742193e+01    6.373495e+00    4.633497e+07    2.059109e-08    6.615175e-11    2.008846e-08    3.454150e-09   -2.540000e+00    5.870466e-01    1.452848e+00
    9.461057e-01    7.086328e+01    6.313655e+00    4.617105e+07    2.059069e-08    6.424490e-11    2.007626e-08    3.453251e-09   -2.530000e+00    5.870466e-01    1.444857e+00
    9.516648e-01    7.440438e+01    6.254030e+00    4.600462e+07    2.059030e-08    6.240000e-11    2.006401e-08    3.452354e-09   -2.520000e+00    5.870466e-01    1.436874e+00
    9.572508e-01    7.804270e+01    6.194620e+00    4.583590e+07    2.058993e-08    6.061475e-11    2.005170e-08    3.451458e-09   -2.510000e+00    5.870466e-01    1.428900e+00
    9.628641e-01    8.177535e+01    6.135435e+00    4.566499e+07    2.058956e-08    5.888705e-11    2.003933e-08    3.450565e-09   -2.500000e+00    5.870466e-01    1.420935e+00
    9.685097e-01    8.559957e+01    6.076470e+00    4.549208e+07    2.058921e-08    5.721480e-11    2.002692e-08    3.449673e-09   -2.490000e+00    5.870466e-01    1.412979e+00
    9.741888e-01    8.951234e+01    6.017730e+00    4.531724e+07    2.058887e-08    5.559600e-11    2.001444e-08    3.448783e-09   -2.480000e+00    5.870466e-01    1.405031e+00
    9.799042e-01    9.351074e+01    5.959220e+00    4.514063e+07    2.058854e-08    5.402875e-11    2.000191e-08    3.447894e-09   -2.470000e+00    5.870466e-01    1.397092e+00
    9.856565e-01    9.759163e+01    5.900945e+00    4.496231e+07    2.058822e-08    5.251115e-11    1.998933e-08    3.447006e-09   -2.460000e+00    5.870466e-01    1.389161e+00
    9.914512e-01    1.017521e+02    5.842895e+00    4.478241e+07    2.058790e-08    5.104155e-11    1.997669e-08    3.446120e-09   -2.450000e+00    5.870466e-01    1.381239e+00
    9.972879e-01    1.059892e+02    5.785085e+00    4.460104e+07    2.058759e-08    4.961816e-11    1.996400e-08    3.445235e-09   -2.440000e+00    5.870466e-01    1.373326e+00
    1.003170e+00    1.103000e+02    5.727510e+00    4.441826e+07    2.058727e-08    4.823936e-11    1.995125e-08    3.444351e-09   -2.430000e+00    5.870466e-01    1.365421e+00
    1.009099e+00    1.146816e+02    5.670170e+00    4.423415e+07    2.058697e-08    4.690359e-11    1.993845e-08    3.443468e-09   -2.420000e+00    5.870466e-01    1.357525e+00
    1.015077e+00    1.191313e+02    5.613075e+00    4.404881e+07    2.058666e-08    4.560933e-11    1.992560e-08    3.442585e-09   -2.410000e+00    5.870466e-01    1.349637e+00
    1.021107e+00    1.236465e+02    5.556220e+00    4.386229e+07    2.058636e-08    4.435513e-11    1.991270e-08    3.441703e-09   -2.400000e+00    5.870466e-01    1.341758e+00
    1.027189e+00    1.282245e+02    5.499605e+00    4.367461e+07    2.058605e-08    4.313960e-11    1.989974e-08    3.440821e-09   -2.390000e+00    5.870466e-01    1.333888e+00
    1.033327e+00    1.328631e+02    5.443235e+00    4.348589e+07    2.058574e-08    4.196138e-11    1.988673e-08    3.439939e-09   -2.380000e+00    5.870466e-01    1.326026e+00
    1.039519e+00    1.375598e+02    5.387115e+00    4.329613e+07    2.058543e-08    4.081918e-11    1.987366e-08    3.439057e-09   -2.370000e+00    5.870466e-01    1.318172e+00
    1.045772e+00    1.423125e+02    5.331235e+00    4.310540e+07    2.058511e-08    3.971177e-11    1.986055e-08    3.438176e-09   -2.360000e+00    5.870466e-01    1.310327e+00
    1.052084e+00    1.471195e+02    5.275610e+00    4.291379e+07    2.058478e-08    3.863794e-11    1.984738e-08    3.437294e-09   -2.350000e+00    5.870466e-01    1.302490e+00
    1.058458e+00    1.519785e+02    5.220230e+00    4.272126e+07    2.058446e-08    3.759655e-11    1.983415e-08    3.436412e-09   -2.340000e+00    5.870466e-01    1.294662e+00
    1.064896e+00    1.568882e+02    5.165100e+00    4.252789e+07    2.058412e-08    3.658648e-11    1.982088e-08    3.435528e-09   -2.330000e+00    5.870466e-01    1.286842e+00
    1.071399e+00    1.618468e+02    5.110225e+00    4.233371e+07    2.058378e-08    3.560667e-11    1.980755e-08    3.434646e-09   -2.320000e+00    5.870466e-01    1.279030e+00
    1.077970e+00    1.668530e+02    5.055600e+00    4.213878e+07    2.058342e-08    3.465610e-11    1.979417e-08    3.433761e-09   -2.310000e+00    5.870466e-01    1.271227e+00
    1.084609e+00    1.719055e+02    5.001230e+00    4.194310e+07    2.058305e-08    3.373377e-11    1.978073e-08    3.432876e-09   -2.300000e+00    5.870466e-01    1.263432e+00
    1.091319e+00    1.770031e+02    4.947112e+00    4.174665e+07    2.058268e-08    3.283874e-11    1.976723e-08    3.431990e-09   -2.290000e+00    5.870466e-01    1.255646e+00
    1.098100e+00    1.821449e+02    4.893251e+00    4.154952e+07    2.058229e-08    3.197010e-11    1.975369e-08    3.431103e-09   -2.280000e+00    5.870466e-01    1.247868e+00
    1.104957e+00    1.873302e+02    4.839646e+00    4.135176e+07    2.058188e-08    3.112695e-11    1.974009e-08    3.430214e-09   -2.270000e+00    5.870466e-01    1.240098e+00
    1.111887e+00    1.925579e+02    4.786300e+00    4.115329e+07    2.058146e-08    3.030845e-11    1.972644e-08    3.429324e-09   -2.260000e+00    5.870466e-01    1.232337e+00
    1.118896e+00    1.978278e+02    4.733211e+00    4.095422e+07    2.058103e-08    2.951379e-11    1.971273e-08    3.428432e-09   -2.250000e+00    5.870466e-01    1.224584e+00
    1.125984e+00    2.031393e+02    4.680381e+00    4.075455e+07    2.058058e-08    2.874218e-11    1.969896e-08    3.427539e-09   -2.240000e+00    5.870466e-01    1.216839e+00
    1.133153e+00    2.084919e+02    4.627810e+00    4.055425e+07    2.058011e-08    2.799286e-11    1.968514e-08    3.426644e-09   -2.230000e+00    5.870466e-01    1.209103e+00
    1.140403e+00    2.138854e+02    4.575501e+00    4.035336e+07    2.057963e-08    2.726509e-11    1.967126e-08    3.425746e-09   -2.220000e+00    5.870466e-01    1.201374e+00
