# GF180MCU-D pfet_03v3 gm/ID Processed Lookup Table
# Corner: ff
# Temperature: 85C
# W = 2.0 um
# L = 0.5 um (500 nm)
# Columns: gm/id [1/V]  gm/gds [V/V]  id/W [A/m]  ft [Hz]  Cgg/W [F/m]  Cgd/W [F/m]  Cgs/W [F/m]  Cdb/W [F/m]  vgs [V]  vth [V]  vdsat [V]
# vdsat = BSIM saturation voltage (|VDS|_sat, positive); use for headroom / saturation / cascode-bias calculations
#           gm/id          gm/gds            id/W              ft           Cgg/W           Cgd/W           Cgs/W           Cdb/W             vgs             vth           vdsat
    4.238276e-01    1.621802e+00    1.312245e+02    4.971434e+09    1.780502e-09    1.184469e-10    1.599338e-09    2.673656e-10   -3.300000e+00    5.979210e-01    2.156041e+00
    4.268355e-01    1.644640e+00    1.306683e+02    4.990363e+09    1.778765e-09    1.149552e-10    1.600253e-09    2.671490e-10   -3.290000e+00    5.979210e-01    2.148394e+00
    4.298828e-01    1.668050e+00    1.301090e+02    5.009284e+09    1.777059e-09    1.115287e-10    1.601130e-09    2.669342e-10   -3.280000e+00    5.979210e-01    2.140748e+00
    4.329625e-01    1.692054e+00    1.295488e+02    5.028190e+09    1.775384e-09    1.081686e-10    1.601972e-09    2.667213e-10   -3.270000e+00    5.979210e-01    2.133103e+00
    4.360775e-01    1.716672e+00    1.289872e+02    5.047076e+09    1.773742e-09    1.048756e-10    1.602777e-09    2.665101e-10   -3.260000e+00    5.979210e-01    2.125459e+00
    4.392286e-01    1.741928e+00    1.284239e+02    5.065944e+09    1.772133e-09    1.016506e-10    1.603545e-09    2.663008e-10   -3.250000e+00    5.979210e-01    2.117816e+00
    4.424163e-01    1.767846e+00    1.278590e+02    5.084786e+09    1.770557e-09    9.849435e-11    1.604275e-09    2.660933e-10   -3.240000e+00    5.979210e-01    2.110173e+00
    4.456408e-01    1.794450e+00    1.272926e+02    5.103600e+09    1.769015e-09    9.540740e-11    1.604969e-09    2.658877e-10   -3.230000e+00    5.979210e-01    2.102531e+00
    4.489031e-01    1.821769e+00    1.267245e+02    5.122384e+09    1.767507e-09    9.239015e-11    1.605626e-09    2.656839e-10   -3.220000e+00    5.979210e-01    2.094889e+00
    4.522032e-01    1.849826e+00    1.261548e+02    5.141130e+09    1.766034e-09    8.944295e-11    1.606245e-09    2.654820e-10   -3.210000e+00    5.979210e-01    2.087248e+00
    4.555427e-01    1.878657e+00    1.255835e+02    5.159845e+09    1.764596e-09    8.656595e-11    1.606827e-09    2.652819e-10   -3.200000e+00    5.979210e-01    2.079608e+00
    4.589211e-01    1.908286e+00    1.250106e+02    5.178517e+09    1.763192e-09    8.375925e-11    1.607374e-09    2.650837e-10   -3.190000e+00    5.979210e-01    2.071969e+00
    4.623397e-01    1.938750e+00    1.244361e+02    5.197148e+09    1.761825e-09    8.102280e-11    1.607884e-09    2.648875e-10   -3.180000e+00    5.979210e-01    2.064330e+00
    4.657985e-01    1.970079e+00    1.238600e+02    5.215731e+09    1.760492e-09    7.835645e-11    1.608357e-09    2.646932e-10   -3.170000e+00    5.979210e-01    2.056692e+00
    4.692987e-01    2.002310e+00    1.232823e+02    5.234271e+09    1.759195e-09    7.575990e-11    1.608795e-09    2.645008e-10   -3.160000e+00    5.979210e-01    2.049054e+00
    4.728407e-01    2.035480e+00    1.227028e+02    5.252758e+09    1.757933e-09    7.323280e-11    1.609197e-09    2.643103e-10   -3.150000e+00    5.979210e-01    2.041417e+00
    4.764250e-01    2.069629e+00    1.221219e+02    5.271195e+09    1.756706e-09    7.077465e-11    1.609565e-09    2.641219e-10   -3.140000e+00    5.979210e-01    2.033781e+00
    4.800525e-01    2.104799e+00    1.215392e+02    5.289577e+09    1.755514e-09    6.838490e-11    1.609898e-09    2.639355e-10   -3.130000e+00    5.979210e-01    2.026145e+00
    4.837231e-01    2.141029e+00    1.209550e+02    5.307898e+09    1.754357e-09    6.606285e-11    1.610197e-09    2.637510e-10   -3.120000e+00    5.979210e-01    2.018510e+00
    4.874380e-01    2.178368e+00    1.203691e+02    5.326163e+09    1.753234e-09    6.380775e-11    1.610463e-09    2.635687e-10   -3.110000e+00    5.979210e-01    2.010875e+00
    4.911977e-01    2.216864e+00    1.197815e+02    5.344363e+09    1.752146e-09    6.161875e-11    1.610696e-09    2.633883e-10   -3.100000e+00    5.979210e-01    2.003241e+00
    4.950030e-01    2.256566e+00    1.191923e+02    5.362502e+09    1.751091e-09    5.949495e-11    1.610897e-09    2.632100e-10   -3.090000e+00    5.979210e-01    1.995607e+00
    4.988541e-01    2.297528e+00    1.186015e+02    5.380572e+09    1.750070e-09    5.743540e-11    1.611066e-09    2.630339e-10   -3.080000e+00    5.979210e-01    1.987974e+00
    5.027523e-01    2.339808e+00    1.180090e+02    5.398577e+09    1.749081e-09    5.543905e-11    1.611204e-09    2.628599e-10   -3.070000e+00    5.979210e-01    1.980341e+00
    5.066972e-01    2.383461e+00    1.174149e+02    5.416506e+09    1.748126e-09    5.350475e-11    1.611313e-09    2.626879e-10   -3.060000e+00    5.979210e-01    1.972709e+00
    5.106898e-01    2.428550e+00    1.168192e+02    5.434360e+09    1.747201e-09    5.163140e-11    1.611391e-09    2.625180e-10   -3.050000e+00    5.979210e-01    1.965077e+00
    5.147307e-01    2.475141e+00    1.162218e+02    5.452135e+09    1.746309e-09    4.981781e-11    1.611440e-09    2.623503e-10   -3.040000e+00    5.979210e-01    1.957446e+00
    5.188207e-01    2.523303e+00    1.156227e+02    5.469832e+09    1.745447e-09    4.806272e-11    1.611462e-09    2.621848e-10   -3.030000e+00    5.979210e-01    1.949815e+00
    5.229600e-01    2.573108e+00    1.150220e+02    5.487443e+09    1.744615e-09    4.636485e-11    1.611456e-09    2.620214e-10   -3.020000e+00    5.979210e-01    1.942185e+00
    5.271494e-01    2.624633e+00    1.144197e+02    5.504968e+09    1.743812e-09    4.472295e-11    1.611423e-09    2.618601e-10   -3.010000e+00    5.979210e-01    1.934554e+00
    5.313891e-01    2.677956e+00    1.138157e+02    5.522399e+09    1.743039e-09    4.313567e-11    1.611364e-09    2.617010e-10   -3.000000e+00    5.979210e-01    1.926925e+00
    5.356795e-01    2.733162e+00    1.132101e+02    5.539733e+09    1.742294e-09    4.160168e-11    1.611280e-09    2.615440e-10   -2.990000e+00    5.979210e-01    1.919295e+00
    5.400217e-01    2.790342e+00    1.126028e+02    5.556972e+09    1.741576e-09    4.011965e-11    1.611171e-09    2.613891e-10   -2.980000e+00    5.979210e-01    1.911666e+00
    5.444149e-01    2.849584e+00    1.119939e+02    5.574096e+09    1.740885e-09    3.868820e-11    1.611038e-09    2.612364e-10   -2.970000e+00    5.979210e-01    1.904038e+00
    5.488608e-01    2.910989e+00    1.113834e+02    5.591115e+09    1.740220e-09    3.730598e-11    1.610883e-09    2.610858e-10   -2.960000e+00    5.979210e-01    1.896410e+00
    5.533586e-01    2.974659e+00    1.107712e+02    5.608013e+09    1.739581e-09    3.597163e-11    1.610704e-09    2.609373e-10   -2.950000e+00    5.979210e-01    1.888782e+00
    5.579092e-01    3.040699e+00    1.101575e+02    5.624790e+09    1.738966e-09    3.468379e-11    1.610504e-09    2.607908e-10   -2.940000e+00    5.979210e-01    1.881154e+00
    5.625128e-01    3.109224e+00    1.095421e+02    5.641436e+09    1.738376e-09    3.344110e-11    1.610283e-09    2.606465e-10   -2.930000e+00    5.979210e-01    1.873526e+00
    5.671694e-01    3.180350e+00    1.089250e+02    5.657944e+09    1.737809e-09    3.224224e-11    1.610041e-09    2.605043e-10   -2.920000e+00    5.979210e-01    1.865899e+00
    5.718784e-01    3.254196e+00    1.083065e+02    5.674302e+09    1.737265e-09    3.108587e-11    1.609780e-09    2.603640e-10   -2.910000e+00    5.979210e-01    1.858272e+00
    5.766407e-01    3.330889e+00    1.076863e+02    5.690502e+09    1.736742e-09    2.997067e-11    1.609499e-09    2.602258e-10   -2.900000e+00    5.979210e-01    1.850646e+00
    5.814562e-01    3.410567e+00    1.070646e+02    5.706540e+09    1.736241e-09    2.889534e-11    1.609199e-09    2.600896e-10   -2.890000e+00    5.979210e-01    1.843019e+00
    5.863239e-01    3.493359e+00    1.064412e+02    5.722396e+09    1.735760e-09    2.785862e-11    1.608882e-09    2.599554e-10   -2.880000e+00    5.979210e-01    1.835393e+00
    5.912439e-01    3.579407e+00    1.058164e+02    5.738062e+09    1.735300e-09    2.685926e-11    1.608548e-09    2.598231e-10   -2.870000e+00    5.979210e-01    1.827767e+00
    5.962164e-01    3.668862e+00    1.051900e+02    5.753529e+09    1.734859e-09    2.589600e-11    1.608196e-09    2.596928e-10   -2.860000e+00    5.979210e-01    1.820141e+00
    6.012401e-01    3.761864e+00    1.045620e+02    5.768777e+09    1.734437e-09    2.496765e-11    1.607829e-09    2.595643e-10   -2.850000e+00    5.979210e-01    1.812515e+00
    6.063148e-01    3.858572e+00    1.039327e+02    5.783799e+09    1.734032e-09    2.407304e-11    1.607445e-09    2.594378e-10   -2.840000e+00    5.979210e-01    1.804890e+00
    6.114393e-01    3.959135e+00    1.033018e+02    5.798573e+09    1.733645e-09    2.321099e-11    1.607047e-09    2.593130e-10   -2.830000e+00    5.979210e-01    1.797264e+00
    6.166131e-01    4.063711e+00    1.026694e+02    5.813084e+09    1.733275e-09    2.238038e-11    1.606634e-09    2.591902e-10   -2.820000e+00    5.979210e-01    1.789639e+00
    6.218354e-01    4.172457e+00    1.020356e+02    5.827319e+09    1.732920e-09    2.158011e-11    1.606207e-09    2.590691e-10   -2.810000e+00    5.979210e-01    1.782014e+00
    6.271045e-01    4.285528e+00    1.014004e+02    5.841254e+09    1.732582e-09    2.080912e-11    1.605766e-09    2.589497e-10   -2.800000e+00    5.979210e-01    1.774388e+00
    6.324193e-01    4.403078e+00    1.007639e+02    5.854874e+09    1.732258e-09    2.006635e-11    1.605313e-09    2.588320e-10   -2.790000e+00    5.979210e-01    1.766763e+00
    6.377787e-01    4.525260e+00    1.001260e+02    5.868158e+09    1.731948e-09    1.935079e-11    1.604846e-09    2.587161e-10   -2.780000e+00    5.979210e-01    1.759138e+00
    6.431809e-01    4.652216e+00    9.948670e+01    5.881085e+09    1.731653e-09    1.866146e-11    1.604367e-09    2.586018e-10   -2.770000e+00    5.979210e-01    1.751513e+00
    6.486238e-01    4.784084e+00    9.884620e+01    5.893630e+09    1.731371e-09    1.799741e-11    1.603876e-09    2.584891e-10   -2.760000e+00    5.979210e-01    1.743888e+00
    6.541068e-01    4.921002e+00    9.820445e+01    5.905781e+09    1.731102e-09    1.735769e-11    1.603374e-09    2.583779e-10   -2.750000e+00    5.979210e-01    1.736263e+00
    6.596270e-01    5.063084e+00    9.756150e+01    5.917508e+09    1.730845e-09    1.674143e-11    1.602861e-09    2.582684e-10   -2.740000e+00    5.979210e-01    1.728638e+00
    6.651833e-01    5.210439e+00    9.691735e+01    5.928793e+09    1.730600e-09    1.614776e-11    1.602337e-09    2.581603e-10   -2.730000e+00    5.979210e-01    1.721013e+00
    6.707724e-01    5.363159e+00    9.627215e+01    5.939609e+09    1.730367e-09    1.557581e-11    1.601803e-09    2.580538e-10   -2.720000e+00    5.979210e-01    1.713388e+00
    6.763935e-01    5.521318e+00    9.562585e+01    5.949940e+09    1.730144e-09    1.502480e-11    1.601258e-09    2.579487e-10   -2.710000e+00    5.979210e-01    1.705762e+00
    6.820435e-01    5.684971e+00    9.497855e+01    5.959761e+09    1.729932e-09    1.449392e-11    1.600704e-09    2.578449e-10   -2.700000e+00    5.979210e-01    1.698137e+00
    6.877216e-01    5.854162e+00    9.433025e+01    5.969055e+09    1.729730e-09    1.398242e-11    1.600140e-09    2.577426e-10   -2.690000e+00    5.979210e-01    1.690511e+00
    6.934243e-01    6.028893e+00    9.368110e+01    5.977801e+09    1.729536e-09    1.348956e-11    1.599568e-09    2.576416e-10   -2.680000e+00    5.979210e-01    1.682886e+00
    6.991501e-01    6.209161e+00    9.303110e+01    5.985977e+09    1.729353e-09    1.301465e-11    1.598986e-09    2.575419e-10   -2.670000e+00    5.979210e-01    1.675260e+00
    7.048980e-01    6.394930e+00    9.238025e+01    5.993572e+09    1.729178e-09    1.255700e-11    1.598397e-09    2.574435e-10   -2.660000e+00    5.979210e-01    1.667634e+00
    7.106643e-01    6.586139e+00    9.172875e+01    6.000565e+09    1.729012e-09    1.211595e-11    1.597798e-09    2.573464e-10   -2.650000e+00    5.979210e-01    1.660008e+00
    7.164494e-01    6.782709e+00    9.107650e+01    6.006945e+09    1.728854e-09    1.169086e-11    1.597193e-09    2.572504e-10   -2.640000e+00    5.979210e-01    1.652382e+00
    7.222509e-01    6.984533e+00    9.042370e+01    6.012706e+09    1.728704e-09    1.128113e-11    1.596579e-09    2.571556e-10   -2.630000e+00    5.979210e-01    1.644755e+00
    7.280672e-01    7.191474e+00    8.977035e+01    6.017832e+09    1.728560e-09    1.088617e-11    1.595957e-09    2.570620e-10   -2.620000e+00    5.979210e-01    1.637128e+00
    7.338974e-01    7.403386e+00    8.911655e+01    6.022316e+09    1.728424e-09    1.050542e-11    1.595328e-09    2.569694e-10   -2.610000e+00    5.979210e-01    1.629501e+00
    7.397413e-01    7.620105e+00    8.846235e+01    6.026161e+09    1.728295e-09    1.013833e-11    1.594692e-09    2.568779e-10   -2.600000e+00    5.979210e-01    1.621874e+00
    7.455972e-01    7.841432e+00    8.780780e+01    6.029352e+09    1.728172e-09    9.784375e-12    1.594049e-09    2.567875e-10   -2.590000e+00    5.979210e-01    1.614246e+00
    7.514658e-01    8.067178e+00    8.715300e+01    6.031904e+09    1.728054e-09    9.443055e-12    1.593399e-09    2.566981e-10   -2.580000e+00    5.979210e-01    1.606618e+00
    7.573469e-01    8.297124e+00    8.649795e+01    6.033806e+09    1.727943e-09    9.113880e-12    1.592743e-09    2.566096e-10   -2.570000e+00    5.979210e-01    1.598990e+00
    7.632395e-01    8.531069e+00    8.584285e+01    6.035070e+09    1.727837e-09    8.796390e-12    1.592079e-09    2.565221e-10   -2.560000e+00    5.979210e-01    1.591361e+00
    7.691454e-01    8.768781e+00    8.518760e+01    6.035697e+09    1.727736e-09    8.490135e-12    1.591410e-09    2.564356e-10   -2.550000e+00    5.979210e-01    1.583732e+00
    7.750649e-01    9.010055e+00    8.453240e+01    6.035706e+09    1.727640e-09    8.194685e-12    1.590735e-09    2.563499e-10   -2.540000e+00    5.979210e-01    1.576103e+00
    7.809980e-01    9.254660e+00    8.387730e+01    6.035093e+09    1.727549e-09    7.909630e-12    1.590054e-09    2.562650e-10   -2.530000e+00    5.979210e-01    1.568473e+00
    7.869465e-01    9.502401e+00    8.322230e+01    6.033875e+09    1.727463e-09    7.634565e-12    1.589367e-09    2.561810e-10   -2.520000e+00    5.979210e-01    1.560843e+00
    7.929123e-01    9.753077e+00    8.256745e+01    6.032065e+09    1.727381e-09    7.369120e-12    1.588674e-09    2.560978e-10   -2.510000e+00    5.979210e-01    1.553212e+00
    7.988961e-01    1.000650e+01    8.191290e+01    6.029681e+09    1.727303e-09    7.112915e-12    1.587975e-09    2.560154e-10   -2.500000e+00    5.979210e-01    1.545581e+00
    8.048984e-01    1.026248e+01    8.125870e+01    6.026726e+09    1.727228e-09    6.865605e-12    1.587270e-09    2.559337e-10   -2.490000e+00    5.979210e-01    1.537949e+00
    8.109227e-01    1.052089e+01    8.060485e+01    6.023223e+09    1.727157e-09    6.626855e-12    1.586561e-09    2.558527e-10   -2.480000e+00    5.979210e-01    1.530317e+00
    8.169707e-01    1.078156e+01    7.995140e+01    6.019189e+09    1.727089e-09    6.396335e-12    1.585846e-09    2.557725e-10   -2.470000e+00    5.979210e-01    1.522685e+00
    8.230427e-01    1.104438e+01    7.929850e+01    6.014631e+09    1.727025e-09    6.173735e-12    1.585127e-09    2.556929e-10   -2.460000e+00    5.979210e-01    1.515051e+00
    8.291422e-01    1.130922e+01    7.864610e+01    6.009569e+09    1.726963e-09    5.958755e-12    1.584401e-09    2.556139e-10   -2.450000e+00    5.979210e-01    1.507418e+00
    8.352701e-01    1.157601e+01    7.799435e+01    6.004019e+09    1.726904e-09    5.751110e-12    1.583671e-09    2.555355e-10   -2.440000e+00    5.979210e-01    1.499783e+00
    8.414295e-01    1.184465e+01    7.734320e+01    5.997992e+09    1.726848e-09    5.550520e-12    1.582936e-09    2.554577e-10   -2.430000e+00    5.979210e-01    1.492148e+00
    8.476219e-01    1.211512e+01    7.669280e+01    5.991511e+09    1.726794e-09    5.356720e-12    1.582195e-09    2.553805e-10   -2.420000e+00    5.979210e-01    1.484512e+00
    8.538506e-01    1.238733e+01    7.604310e+01    5.984588e+09    1.726743e-09    5.169465e-12    1.581451e-09    2.553039e-10   -2.410000e+00    5.979210e-01    1.476876e+00
    8.601166e-01    1.266127e+01    7.539420e+01    5.977234e+09    1.726693e-09    4.988497e-12    1.580701e-09    2.552276e-10   -2.400000e+00    5.979210e-01    1.469239e+00
    8.664219e-01    1.293692e+01    7.474615e+01    5.969464e+09    1.726645e-09    4.813589e-12    1.579947e-09    2.551520e-10   -2.390000e+00    5.979210e-01    1.461601e+00
    8.727689e-01    1.321428e+01    7.409900e+01    5.961290e+09    1.726599e-09    4.644515e-12    1.579187e-09    2.550768e-10   -2.380000e+00    5.979210e-01    1.453963e+00
    8.791604e-01    1.349336e+01    7.345275e+01    5.952726e+09    1.726555e-09    4.481058e-12    1.578423e-09    2.550020e-10   -2.370000e+00    5.979210e-01    1.446324e+00
    8.855982e-01    1.377417e+01    7.280745e+01    5.943785e+09    1.726512e-09    4.323011e-12    1.577655e-09    2.549278e-10   -2.360000e+00    5.979210e-01    1.438684e+00
    8.920842e-01    1.405674e+01    7.216320e+01    5.934479e+09    1.726471e-09    4.170174e-12    1.576882e-09    2.548538e-10   -2.350000e+00    5.979210e-01    1.431043e+00
    8.986213e-01    1.434112e+01    7.151995e+01    5.924819e+09    1.726430e-09    4.022355e-12    1.576104e-09    2.547803e-10   -2.340000e+00    5.979210e-01    1.423402e+00
    9.052108e-01    1.462733e+01    7.087780e+01    5.914813e+09    1.726391e-09    3.879372e-12    1.575322e-09    2.547071e-10   -2.330000e+00    5.979210e-01    1.415759e+00
    9.118546e-01    1.491543e+01    7.023680e+01    5.904472e+09    1.726352e-09    3.741047e-12    1.574536e-09    2.546342e-10   -2.320000e+00    5.979210e-01    1.408116e+00
    9.185567e-01    1.520550e+01    6.959690e+01    5.893809e+09    1.726314e-09    3.607210e-12    1.573745e-09    2.545618e-10   -2.310000e+00    5.979210e-01    1.400472e+00
    9.253164e-01    1.549757e+01    6.895825e+01    5.882826e+09    1.726277e-09    3.477700e-12    1.572950e-09    2.544896e-10   -2.300000e+00    5.979210e-01    1.392827e+00
    9.321377e-01    1.579171e+01    6.832075e+01    5.871532e+09    1.726241e-09    3.352359e-12    1.572150e-09    2.544176e-10   -2.290000e+00    5.979210e-01    1.385181e+00
    9.390215e-01    1.608799e+01    6.768455e+01    5.859936e+09    1.726205e-09    3.231037e-12    1.571346e-09    2.543460e-10   -2.280000e+00    5.979210e-01    1.377534e+00
    9.459714e-01    1.638651e+01    6.704965e+01    5.848053e+09    1.726169e-09    3.113589e-12    1.570537e-09    2.542745e-10   -2.270000e+00    5.979210e-01    1.369887e+00
    9.529887e-01    1.668732e+01    6.641600e+01    5.835878e+09    1.726134e-09    2.999878e-12    1.569724e-09    2.542033e-10   -2.260000e+00    5.979210e-01    1.362238e+00
    9.600745e-01    1.699049e+01    6.578375e+01    5.823422e+09    1.726098e-09    2.889770e-12    1.568907e-09    2.541323e-10   -2.250000e+00    5.979210e-01    1.354588e+00
    9.672317e-01    1.729613e+01    6.515290e+01    5.810692e+09    1.726063e-09    2.783136e-12    1.568085e-09    2.540615e-10   -2.240000e+00    5.979210e-01    1.346937e+00
    9.744628e-01    1.760430e+01    6.452340e+01    5.797691e+09    1.726027e-09    2.679853e-12    1.567259e-09    2.539909e-10   -2.230000e+00    5.979210e-01    1.339285e+00
    9.817686e-01    1.791510e+01    6.389540e+01    5.784427e+09    1.725991e-09    2.579804e-12    1.566429e-09    2.539204e-10   -2.220000e+00    5.979210e-01    1.331632e+00
