# GF180MCU-D nfet_03v3 gm/ID Processed Lookup Table
# Corner: ss
# Temperature: -40C
# W = 2.0 um
# L = 1.5 um (1500 nm)
# Columns: gm/id [1/V]  gm/gds [V/V]  id/W [A/m]  ft [Hz]  Cgg/W [F/m]  Cgd/W [F/m]  Cgs/W [F/m]  Cdb/W [F/m]  vgs [V]  vth [V]  vdsat [V]
# vdsat = BSIM saturation voltage (|VDS|_sat, positive); use for headroom / saturation / cascode-bias calculations
#           gm/id          gm/gds            id/W              ft           Cgg/W           Cgd/W           Cgs/W           Cdb/W             vgs             vth           vdsat
    3.420523e+01    4.177390e+02    9.192900e-05    2.721626e+05    1.838810e-09    2.460526e-16    2.005090e-11    6.727315e-12    6.000000e-01    8.577436e-01    3.204862e-02
    3.417055e+01    4.163308e+02    1.294054e-04    3.831099e+05    1.836967e-09    2.908878e-16    2.599198e-11    7.903205e-12    6.100000e-01    8.577436e-01    3.205909e-02
    3.408710e+01    4.146991e+02    1.820514e-04    5.379583e+05    1.835928e-09    3.437389e-16    3.299678e-11    9.282695e-12    6.200000e-01    8.577436e-01    3.207378e-02
    3.395924e+01    4.128196e+02    2.558441e-04    7.532195e+05    1.835828e-09    4.060320e-16    4.125867e-11    1.090165e-11    6.300000e-01    8.577436e-01    3.209436e-02
    3.378882e+01    4.106713e+02    3.590119e-04    1.051075e+06    1.836827e-09    4.794521e-16    5.100790e-11    1.280218e-11    6.400000e-01    8.577436e-01    3.212309e-02
    3.357602e+01    4.082388e+02    5.028170e-04    1.460998e+06    1.839119e-09    5.659885e-16    6.251710e-11    1.503353e-11    6.500000e-01    8.577436e-01    3.216306e-02
    3.331994e+01    4.055177e+02    7.025765e-04    2.021668e+06    1.842927e-09    6.679890e-16    7.610685e-11    1.765290e-11    6.600000e-01    8.577436e-01    3.221845e-02
    3.301916e+01    4.025192e+02    9.789680e-04    2.783119e+06    1.848515e-09    7.882180e-16    9.215080e-11    2.072622e-11    6.700000e-01    8.577436e-01    3.229480e-02
    3.267227e+01    3.992752e+02    1.359683e-03    3.809035e+06    1.856188e-09    9.299230e-16    1.110806e-10    2.432885e-11    6.800000e-01    8.577436e-01    3.239947e-02
    3.227836e+01    3.958459e+02    1.881473e-03    5.179041e+06    1.866295e-09    1.096907e-15    1.333894e-10    2.854608e-11    6.900000e-01    8.577436e-01    3.254199e-02
    3.183747e+01    3.923248e+02    2.592659e-03    6.990758e+06    1.879230e-09    1.293606e-15    1.596346e-10    3.347331e-11    7.000000e-01    8.577436e-01    3.273453e-02
    3.135085e+01    3.888418e+02    3.556131e-03    9.361353e+06    1.895434e-09    1.525169e-15    1.904379e-10    3.921586e-11    7.100000e-01    8.577436e-01    3.299231e-02
    3.082110e+01    3.855637e+02    4.852907e-03    1.242832e+07    1.915393e-09    1.797539e-15    2.264823e-10    4.588818e-11    7.200000e-01    8.577436e-01    3.333396e-02
    3.025201e+01    3.826887e+02    6.586255e-03    1.634906e+07    1.939635e-09    2.117535e-15    2.685058e-10    5.361220e-11    7.300000e-01    8.577436e-01    3.378159e-02
    2.964807e+01    3.804327e+02    8.886400e-03    2.129902e+07    1.968715e-09    2.492918e-15    3.172878e-10    6.251480e-11    7.400000e-01    8.577436e-01    3.436068e-02
    2.901365e+01    3.790121e+02    1.191579e-02    2.746750e+07    2.003209e-09    2.932454e-15    3.736301e-10    7.272365e-11    7.500000e-01    8.577436e-01    3.509958e-02
    2.835232e+01    3.786178e+02    1.587467e-02    3.505085e+07    2.043690e-09    3.445943e-15    4.383276e-10    8.436215e-11    7.600000e-01    8.577436e-01    3.602850e-02
    2.766614e+01    3.793936e+02    2.100680e-02    4.424223e+07    2.090699e-09    4.044221e-15    5.121300e-10    9.754205e-11    7.700000e-01    8.577436e-01    3.717827e-02
    2.695556e+01    3.814147e+02    2.760464e-02    5.521800e+07    2.144717e-09    4.739116e-15    5.956920e-10    1.123548e-10    7.800000e-01    8.577436e-01    3.857873e-02
    2.621997e+01    3.846779e+02    3.601339e-02    6.812214e+07    2.206115e-09    5.543350e-15    6.895165e-10    1.288619e-10    7.900000e-01    8.577436e-01    4.025709e-02
    2.545857e+01    3.891026e+02    4.663320e-02    8.305121e+07    2.275115e-09    6.470365e-15    7.938875e-10    1.470837e-10    8.000000e-01    8.577436e-01    4.223645e-02
    2.467151e+01    3.945424e+02    5.991885e-02    1.000438e+08    2.351739e-09    7.534115e-15    9.088075e-10    1.669897e-10    8.100000e-01    8.577436e-01    4.453474e-02
    2.386069e+01    4.008035e+02    7.637670e-02    1.190771e+08    2.435767e-09    8.748730e-15    1.033933e-09    1.884894e-10    8.200000e-01    8.577436e-01    4.716411e-02
    2.303011e+01    4.076655e+02    9.655875e-02    1.400727e+08    2.526704e-09    1.012817e-14    1.168536e-09    2.114269e-10    8.300000e-01    8.577436e-01    5.013087e-02
    2.218547e+01    4.149009e+02    1.210549e-01    1.629094e+08    2.623766e-09    1.168580e-14    1.311482e-09    2.355808e-10    8.400000e-01    8.577436e-01    5.343583e-02
    2.133366e+01    4.222872e+02    1.504827e-01    1.874407e+08    2.725890e-09    1.343399e-14    1.461244e-09    2.606683e-10    8.500000e-01    8.577436e-01    5.707496e-02
    2.048192e+01    4.296180e+02    1.854764e-01    2.135117e+08    2.831769e-09    1.538370e-14    1.615962e-09    2.863574e-10    8.600000e-01    8.577436e-01    6.104016e-02
    1.963712e+01    4.367078e+02    2.266753e-01    2.409725e+08    2.939914e-09    1.754412e-14    1.773522e-09    3.122833e-10    8.700000e-01    8.577436e-01    6.532002e-02
    1.880538e+01    4.433937e+02    2.747116e-01    2.696866e+08    3.048736e-09    1.992244e-14    1.931682e-09    3.380694e-10    8.800000e-01    8.577436e-01    6.990055e-02
    1.799184e+01    4.495385e+02    3.301985e-01    2.995339e+08    3.156640e-09    2.252368e-14    2.088197e-09    3.633493e-10    8.900000e-01    8.577436e-01    7.476581e-02
    1.720061e+01    4.550315e+02    3.937197e-01    3.304091e+08    3.262115e-09    2.535071e-14    2.240954e-09    3.877875e-10    9.000000e-01    8.577436e-01    7.989841e-02
    1.643485e+01    4.597879e+02    4.658188e-01    3.622183e+08    3.363818e-09    2.840434e-14    2.388079e-09    4.110966e-10    9.100000e-01    8.577436e-01    8.528001e-02
    1.569690e+01    4.637507e+02    5.469915e-01    3.948747e+08    3.460631e-09    3.168353e-14    2.528028e-09    4.330490e-10    9.200000e-01    8.577436e-01    9.089165e-02
    1.498842e+01    4.668876e+02    6.376800e-01    4.282945e+08    3.551700e-09    3.518571e-14    2.659625e-09    4.534822e-10    9.300000e-01    8.577436e-01    9.671420e-02
    1.431050e+01    4.691912e+02    7.382685e-01    4.623949e+08    3.636439e-09    3.890708e-14    2.782083e-09    4.722982e-10    9.400000e-01    8.577436e-01    1.027286e-01
    1.366379e+01    4.706750e+02    8.490805e-01    4.970921e+08    3.714526e-09    4.284298e-14    2.894978e-09    4.894586e-10    9.500000e-01    8.577436e-01    1.089162e-01
    1.304846e+01    4.713697e+02    9.703825e-01    5.323010e+08    3.785866e-09    4.698826e-14    2.998213e-09    5.049760e-10    9.600000e-01    8.577436e-01    1.152591e-01
    1.246438e+01    4.713206e+02    1.102383e+00    5.679367e+08    3.850557e-09    5.133750e-14    3.091955e-09    5.189045e-10    9.700000e-01    8.577436e-01    1.217400e-01
    1.191111e+01    4.705825e+02    1.245239e+00    6.039154e+08    3.908849e-09    5.588535e-14    3.176585e-09    5.313280e-10    9.800000e-01    8.577436e-01    1.283428e-01
    1.138796e+01    4.692168e+02    1.399057e+00    6.401556e+08    3.961100e-09    6.062675e-14    3.252631e-09    5.423505e-10    9.900000e-01    8.577436e-01    1.350525e-01
    1.089403e+01    4.672883e+02    1.563904e+00    6.765805e+08    4.007736e-09    6.555690e-14    3.320712e-09    5.520890e-10    1.000000e+00    8.577436e-01    1.418553e-01
    1.042827e+01    4.648621e+02    1.739807e+00    7.131181e+08    4.049224e-09    7.067165e-14    3.381507e-09    5.606650e-10    1.010000e+00    8.577436e-01    1.487385e-01
    9.989495e+00    4.620018e+02    1.926762e+00    7.497021e+08    4.086045e-09    7.596735e-14    3.435702e-09    5.681990e-10    1.020000e+00    8.577436e-01    1.556906e-01
    9.576445e+00    4.587679e+02    2.124741e+00    7.862732e+08    4.118671e-09    8.144095e-14    3.483976e-09    5.748070e-10    1.030000e+00    8.577436e-01    1.627014e-01
    9.187798e+00    4.552168e+02    2.333693e+00    8.227785e+08    4.147556e-09    8.709010e-14    3.526975e-09    5.805990e-10    1.040000e+00    8.577436e-01    1.697617e-01
    8.822209e+00    4.513997e+02    2.553547e+00    8.591715e+08    4.173125e-09    9.291305e-14    3.565307e-09    5.856750e-10    1.050000e+00    8.577436e-01    1.768632e-01
    8.478342e+00    4.473636e+02    2.784222e+00    8.954126e+08    4.195771e-09    9.890850e-14    3.599525e-09    5.901260e-10    1.060000e+00    8.577436e-01    1.839988e-01
    8.154873e+00    4.431493e+02    3.025626e+00    9.314677e+08    4.215847e-09    1.050759e-13    3.630134e-09    5.940340e-10    1.070000e+00    8.577436e-01    1.911621e-01
    7.850515e+00    4.387933e+02    3.277660e+00    9.673081e+08    4.233674e-09    1.114151e-13    3.657584e-09    5.974720e-10    1.080000e+00    8.577436e-01    1.983476e-01
    7.564031e+00    4.343279e+02    3.540218e+00    1.002910e+09    4.249534e-09    1.179266e-13    3.682277e-09    6.005030e-10    1.090000e+00    8.577436e-01    2.055504e-01
    7.294236e+00    4.297799e+02    3.813190e+00    1.038255e+09    4.263679e-09    1.246111e-13    3.704567e-09    6.031825e-10    1.100000e+00    8.577436e-01    2.127662e-01
    7.040006e+00    4.251733e+02    4.096466e+00    1.073326e+09    4.276328e-09    1.314700e-13    3.724762e-09    6.055600e-10    1.110000e+00    8.577436e-01    2.199915e-01
    6.800281e+00    4.205279e+02    4.389935e+00    1.108111e+09    4.287674e-09    1.385049e-13    3.743134e-09    6.076760e-10    1.120000e+00    8.577436e-01    2.272230e-01
    6.574064e+00    4.158607e+02    4.693484e+00    1.142601e+09    4.297886e-09    1.457177e-13    3.759918e-09    6.095675e-10    1.130000e+00    8.577436e-01    2.344579e-01
    6.360428e+00    4.111860e+02    5.007000e+00    1.176789e+09    4.307107e-09    1.531111e-13    3.775319e-09    6.112650e-10    1.140000e+00    8.577436e-01    2.416940e-01
    6.158494e+00    4.065159e+02    5.330380e+00    1.210669e+09    4.315463e-09    1.606875e-13    3.789511e-09    6.127960e-10    1.150000e+00    8.577436e-01    2.489292e-01
    5.967462e+00    4.018599e+02    5.663510e+00    1.244239e+09    4.323064e-09    1.684498e-13    3.802648e-09    6.141820e-10    1.160000e+00    8.577436e-01    2.561618e-01
    5.786581e+00    3.972262e+02    6.006280e+00    1.277496e+09    4.330005e-09    1.764014e-13    3.814862e-09    6.154435e-10    1.170000e+00    8.577436e-01    2.633902e-01
    5.615153e+00    3.926218e+02    6.358590e+00    1.310439e+09    4.336365e-09    1.845456e-13    3.826266e-09    6.165965e-10    1.180000e+00    8.577436e-01    2.706132e-01
    5.452535e+00    3.880516e+02    6.720335e+00    1.343069e+09    4.342214e-09    1.928861e-13    3.836957e-09    6.176560e-10    1.190000e+00    8.577436e-01    2.778297e-01
    5.298134e+00    3.835203e+02    7.091410e+00    1.375386e+09    4.347614e-09    2.014269e-13    3.847020e-09    6.186335e-10    1.200000e+00    8.577436e-01    2.850389e-01
    5.151392e+00    3.790308e+02    7.471725e+00    1.407393e+09    4.352616e-09    2.101721e-13    3.856528e-09    6.195395e-10    1.210000e+00    8.577436e-01    2.922398e-01
    5.011807e+00    3.745862e+02    7.861175e+00    1.439090e+09    4.357265e-09    2.191260e-13    3.865542e-09    6.203830e-10    1.220000e+00    8.577436e-01    2.994320e-01
    4.878909e+00    3.701881e+02    8.259665e+00    1.470481e+09    4.361600e-09    2.282932e-13    3.874118e-09    6.211720e-10    1.230000e+00    8.577436e-01    3.066148e-01
    4.752260e+00    3.658381e+02    8.667105e+00    1.501567e+09    4.365656e-09    2.376784e-13    3.882302e-09    6.219125e-10    1.240000e+00    8.577436e-01    3.137879e-01
    4.631461e+00    3.615371e+02    9.083400e+00    1.532353e+09    4.369460e-09    2.472865e-13    3.890135e-09    6.226100e-10    1.250000e+00    8.577436e-01    3.209508e-01
    4.516142e+00    3.572859e+02    9.508460e+00    1.562840e+09    4.373039e-09    2.571226e-13    3.897650e-09    6.232695e-10    1.260000e+00    8.577436e-01    3.281032e-01
    4.405957e+00    3.530846e+02    9.942200e+00    1.593032e+09    4.376414e-09    2.671920e-13    3.904882e-09    6.238950e-10    1.270000e+00    8.577436e-01    3.352450e-01
    4.300591e+00    3.489333e+02    1.038453e+01    1.622932e+09    4.379605e-09    2.775002e-13    3.911854e-09    6.244900e-10    1.280000e+00    8.577436e-01    3.423759e-01
    4.199750e+00    3.448320e+02    1.083537e+01    1.652542e+09    4.382627e-09    2.880530e-13    3.918590e-09    6.250580e-10    1.290000e+00    8.577436e-01    3.494958e-01
    4.103164e+00    3.407802e+02    1.129462e+01    1.681867e+09    4.385497e-09    2.988560e-13    3.925110e-09    6.256015e-10    1.300000e+00    8.577436e-01    3.566046e-01
    4.010577e+00    3.367776e+02    1.176221e+01    1.710909e+09    4.388226e-09    3.099156e-13    3.931434e-09    6.261225e-10    1.310000e+00    8.577436e-01    3.637023e-01
    3.921758e+00    3.328237e+02    1.223805e+01    1.739671e+09    4.390826e-09    3.212377e-13    3.937575e-09    6.266230e-10    1.320000e+00    8.577436e-01    3.707888e-01
    3.836490e+00    3.289177e+02    1.272208e+01    1.768156e+09    4.393308e-09    3.328290e-13    3.943549e-09    6.271050e-10    1.330000e+00    8.577436e-01    3.778641e-01
    3.754570e+00    3.250591e+02    1.321419e+01    1.796366e+09    4.395679e-09    3.446960e-13    3.949367e-09    6.275700e-10    1.340000e+00    8.577436e-01    3.849282e-01
    3.675811e+00    3.212469e+02    1.371432e+01    1.824305e+09    4.397948e-09    3.568455e-13    3.955040e-09    6.280195e-10    1.350000e+00    8.577436e-01    3.919812e-01
    3.600043e+00    3.174808e+02    1.422239e+01    1.851977e+09    4.400122e-09    3.692848e-13    3.960579e-09    6.284540e-10    1.360000e+00    8.577436e-01    3.990231e-01
    3.527099e+00    3.137598e+02    1.473832e+01    1.879383e+09    4.402207e-09    3.820211e-13    3.965992e-09    6.288755e-10    1.370000e+00    8.577436e-01    4.060540e-01
    3.456827e+00    3.100828e+02    1.526203e+01    1.906524e+09    4.404209e-09    3.950618e-13    3.971286e-09    6.292840e-10    1.380000e+00    8.577436e-01    4.130739e-01
    3.389091e+00    3.064495e+02    1.579346e+01    1.933405e+09    4.406132e-09    4.084146e-13    3.976468e-09    6.296810e-10    1.390000e+00    8.577436e-01    4.200830e-01
    3.323753e+00    3.028586e+02    1.633252e+01    1.960027e+09    4.407982e-09    4.220875e-13    3.981546e-09    6.300670e-10    1.400000e+00    8.577436e-01    4.270813e-01
    3.260694e+00    2.993095e+02    1.687914e+01    1.986393e+09    4.409763e-09    4.360887e-13    3.986525e-09    6.304425e-10    1.410000e+00    8.577436e-01    4.340689e-01
    3.199800e+00    2.958016e+02    1.743325e+01    2.012506e+09    4.411478e-09    4.504267e-13    3.991411e-09    6.308085e-10    1.420000e+00    8.577436e-01    4.410460e-01
    3.140963e+00    2.923340e+02    1.799477e+01    2.038367e+09    4.413130e-09    4.651100e-13    3.996207e-09    6.311650e-10    1.430000e+00    8.577436e-01    4.480126e-01
    3.084081e+00    2.889058e+02    1.856363e+01    2.063980e+09    4.414724e-09    4.801478e-13    4.000919e-09    6.315130e-10    1.440000e+00    8.577436e-01    4.549689e-01
    3.029058e+00    2.855163e+02    1.913978e+01    2.089344e+09    4.416261e-09    4.955491e-13    4.005549e-09    6.318530e-10    1.450000e+00    8.577436e-01    4.619149e-01
    2.975810e+00    2.821649e+02    1.972312e+01    2.114464e+09    4.417744e-09    5.113235e-13    4.010104e-09    6.321850e-10    1.460000e+00    8.577436e-01    4.688510e-01
    2.924248e+00    2.788508e+02    2.031360e+01    2.139340e+09    4.419178e-09    5.274810e-13    4.014584e-09    6.325095e-10    1.470000e+00    8.577436e-01    4.757770e-01
    2.874298e+00    2.755732e+02    2.091114e+01    2.163975e+09    4.420562e-09    5.440310e-13    4.018995e-09    6.328270e-10    1.480000e+00    8.577436e-01    4.826933e-01
    2.825887e+00    2.723315e+02    2.151567e+01    2.188371e+09    4.421899e-09    5.609845e-13    4.023339e-09    6.331375e-10    1.490000e+00    8.577436e-01    4.895999e-01
    2.778942e+00    2.691249e+02    2.212713e+01    2.212529e+09    4.423191e-09    5.783520e-13    4.027618e-09    6.334415e-10    1.500000e+00    8.577436e-01    4.964969e-01
    2.733402e+00    2.659531e+02    2.274545e+01    2.236452e+09    4.424442e-09    5.961440e-13    4.031835e-09    6.337395e-10    1.510000e+00    8.577436e-01    5.033845e-01
    2.689202e+00    2.628152e+02    2.337055e+01    2.260141e+09    4.425651e-09    6.143730e-13    4.035992e-09    6.340315e-10    1.520000e+00    8.577436e-01    5.102629e-01
    2.646286e+00    2.597105e+02    2.400239e+01    2.283598e+09    4.426820e-09    6.330495e-13    4.040093e-09    6.343180e-10    1.530000e+00    8.577436e-01    5.171321e-01
    2.604603e+00    2.566389e+02    2.464088e+01    2.306827e+09    4.427952e-09    6.521865e-13    4.044139e-09    6.345990e-10    1.540000e+00    8.577436e-01    5.239923e-01
    2.564095e+00    2.535994e+02    2.528596e+01    2.329825e+09    4.429047e-09    6.717955e-13    4.048132e-09    6.348745e-10    1.550000e+00    8.577436e-01    5.308437e-01
    2.524716e+00    2.505915e+02    2.593757e+01    2.352598e+09    4.430107e-09    6.918900e-13    4.052073e-09    6.351450e-10    1.560000e+00    8.577436e-01    5.376863e-01
    2.486419e+00    2.476145e+02    2.659564e+01    2.375144e+09    4.431134e-09    7.124830e-13    4.055966e-09    6.354105e-10    1.570000e+00    8.577436e-01    5.445204e-01
    2.449162e+00    2.446682e+02    2.726011e+01    2.397468e+09    4.432127e-09    7.335885e-13    4.059811e-09    6.356715e-10    1.580000e+00    8.577436e-01    5.513461e-01
    2.412902e+00    2.417521e+02    2.793091e+01    2.419571e+09    4.433090e-09    7.552195e-13    4.063610e-09    6.359280e-10    1.590000e+00    8.577436e-01    5.581635e-01
    2.377601e+00    2.388654e+02    2.860797e+01    2.441453e+09    4.434022e-09    7.773910e-13    4.067365e-09    6.361800e-10    1.600000e+00    8.577436e-01    5.649727e-01
    2.343220e+00    2.360078e+02    2.929125e+01    2.463117e+09    4.434924e-09    8.001185e-13    4.071077e-09    6.364280e-10    1.610000e+00    8.577436e-01    5.717739e-01
    2.309727e+00    2.331789e+02    2.998067e+01    2.484564e+09    4.435799e-09    8.234165e-13    4.074747e-09    6.366715e-10    1.620000e+00    8.577436e-01    5.785673e-01
    2.277085e+00    2.303782e+02    3.067618e+01    2.505796e+09    4.436646e-09    8.473010e-13    4.078378e-09    6.369115e-10    1.630000e+00    8.577436e-01    5.853529e-01
    2.245262e+00    2.276051e+02    3.137770e+01    2.526813e+09    4.437467e-09    8.717890e-13    4.081969e-09    6.371475e-10    1.640000e+00    8.577436e-01    5.921309e-01
    2.214231e+00    2.248594e+02    3.208517e+01    2.547620e+09    4.438262e-09    8.968965e-13    4.085523e-09    6.373800e-10    1.650000e+00    8.577436e-01    5.989014e-01
    2.183961e+00    2.221406e+02    3.279856e+01    2.568215e+09    4.439032e-09    9.226420e-13    4.089040e-09    6.376090e-10    1.660000e+00    8.577436e-01    6.056647e-01
    2.154424e+00    2.194483e+02    3.351777e+01    2.588601e+09    4.439779e-09    9.490425e-13    4.092521e-09    6.378345e-10    1.670000e+00    8.577436e-01    6.124207e-01
    2.125595e+00    2.167821e+02    3.424277e+01    2.608780e+09    4.440502e-09    9.761170e-13    4.095968e-09    6.380570e-10    1.680000e+00    8.577436e-01    6.191697e-01
