# GF180MCU-D nfet_03v3 gm/ID Processed Lookup Table
# Corner: ss
# Temperature: -40C
# W = 2.0 um
# L = 3.5 um (3500 nm)
# Columns: gm/id [1/V]  gm/gds [V/V]  id/W [A/m]  ft [Hz]  Cgg/W [F/m]  Cgd/W [F/m]  Cgs/W [F/m]  Cdb/W [F/m]  vgs [V]  vth [V]  vdsat [V]
# vdsat = BSIM saturation voltage (|VDS|_sat, positive); use for headroom / saturation / cascode-bias calculations
#           gm/id          gm/gds            id/W              ft           Cgg/W           Cgd/W           Cgs/W           Cdb/W             vgs             vth           vdsat
    3.378801e+01    6.360226e+02    5.196015e-05    6.435147e+04    4.342048e-09    8.172330e-16    8.545595e-11    2.334667e-11    5.900000e-01    8.404747e-01    2.878194e-02
    3.378788e+01    6.333481e+02    7.285190e-05    9.021669e+04    4.342452e-09    9.635035e-16    1.059201e-10    2.737381e-11    6.000000e-01    8.404747e-01    2.879609e-02
    3.371428e+01    6.302716e+02    1.021051e-04    1.260777e+05    4.345531e-09    1.135609e-15    1.300366e-10    3.209407e-11    6.100000e-01    8.404747e-01    2.881588e-02
    3.357666e+01    6.267624e+02    1.429526e-04    1.755441e+05    4.351745e-09    1.338117e-15    1.584655e-10    3.762682e-11    6.200000e-01    8.404747e-01    2.884348e-02
    3.338067e+01    6.228005e+02    1.998071e-04    2.433756e+05    4.361632e-09    1.576406e-15    1.919794e-10    4.411012e-11    6.300000e-01    8.404747e-01    2.888181e-02
    3.312941e+01    6.183851e+02    2.786492e-04    3.357625e+05    4.375820e-09    1.856790e-15    2.314739e-10    5.170240e-11    6.400000e-01    8.404747e-01    2.893481e-02
    3.282451e+01    6.135432e+02    3.875223e-04    4.606311e+05    4.395030e-09    2.186666e-15    2.779786e-10    6.058390e-11    6.500000e-01    8.404747e-01    2.900772e-02
    3.246691e+01    6.083379e+02    5.371510e-04    6.279531e+05    4.420082e-09    2.574672e-15    3.326639e-10    7.095770e-11    6.600000e-01    8.404747e-01    2.910737e-02
    3.205759e+01    6.028785e+02    7.417040e-04    8.500333e+05    4.451903e-09    3.030845e-15    3.968454e-10    8.304980e-11    6.700000e-01    8.404747e-01    2.924263e-02
    3.159831e+01    5.973294e+02    1.019712e-03    1.141742e+06    4.491520e-09    3.566802e-15    4.719830e-10    9.710845e-11    6.800000e-01    8.404747e-01    2.942466e-02
    3.109185e+01    5.919128e+02    1.395167e-03    1.520657e+06    4.540060e-09    4.195903e-15    5.596725e-10    1.134020e-10    6.900000e-01    8.404747e-01    2.966736e-02
    3.054226e+01    5.869079e+02    1.898804e-03    2.007071e+06    4.598737e-09    4.933418e-15    6.616270e-10    1.322145e-10    7.000000e-01    8.404747e-01    2.998749e-02
    2.995463e+01    5.826380e+02    2.569581e-03    2.623849e+06    4.668825e-09    5.796675e-15    7.796440e-10    1.538395e-10    7.100000e-01    8.404747e-01    3.040473e-02
    2.933449e+01    5.794477e+02    3.456367e-03    3.396062e+06    4.751632e-09    6.805160e-15    9.155595e-10    1.785701e-10    7.200000e-01    8.404747e-01    3.094148e-02
    2.868719e+01    5.776757e+02    4.619803e-03    4.350397e+06    4.848448e-09    7.980570e-15    1.071176e-09    2.066863e-10    7.300000e-01    8.404747e-01    3.162229e-02
    2.801704e+01    5.776158e+02    6.134295e-03    5.514211e+06    4.960480e-09    9.346815e-15    1.248172e-09    2.384381e-10    7.400000e-01    8.404747e-01    3.247299e-02
    2.732680e+01    5.794850e+02    8.090050e-03    6.914279e+06    5.088775e-09    1.092987e-14    1.447990e-09    2.740256e-10    7.500000e-01    8.404747e-01    3.351957e-02
    2.661771e+01    5.833978e+02    1.059495e-02    8.575224e+06    5.234125e-09    1.275755e-14    1.671700e-09    3.135758e-10    7.600000e-01    8.404747e-01    3.478690e-02
    2.588992e+01    5.893555e+02    1.377610e-02    1.051787e+07    5.396960e-09    1.485914e-14    1.919855e-09    3.571188e-10    7.700000e-01    8.404747e-01    3.629751e-02
    2.514344e+01    5.972516e+02    1.778083e-02    1.275782e+07    5.577255e-09    1.726486e-14    2.192343e-09    4.045650e-10    7.800000e-01    8.404747e-01    3.807053e-02
    2.437895e+01    6.068882e+02    2.277699e-02    1.530465e+07    5.774415e-09    2.000517e-14    2.488262e-09    4.556859e-10    7.900000e-01    8.404747e-01    4.012101e-02
    2.359841e+01    6.180005e+02    2.895240e-02    1.816188e+07    5.987240e-09    2.311002e-14    2.805822e-09    5.101040e-10    8.000000e-01    8.404747e-01    4.245964e-02
    2.280523e+01    6.302846e+02    3.651353e-02    2.132781e+07    6.213870e-09    2.660794e-14    3.142317e-09    5.672910e-10    8.100000e-01    8.404747e-01    4.509274e-02
    2.200397e+01    6.434158e+02    4.568346e-02    2.479693e+07    6.451820e-09    3.052513e-14    3.494171e-09    6.265840e-10    8.200000e-01    8.404747e-01    4.802266e-02
    2.119975e+01    6.570666e+02    5.669910e-02    2.856120e+07    6.698085e-09    3.488466e-14    3.857059e-09    6.872085e-10    8.300000e-01    8.404747e-01    5.124815e-02
    2.039786e+01    6.709163e+02    6.980770e-02    3.261144e+07    6.949255e-09    3.970569e-14    4.226116e-09    7.483210e-10    8.400000e-01    8.404747e-01    5.476494e-02
    1.960317e+01    6.846607e+02    8.526325e-02    3.693792e+07    7.201715e-09    4.500299e-14    4.596201e-09    8.090525e-10    8.500000e-01    8.404747e-01    5.856613e-02
    1.882000e+01    6.980169e+02    1.033220e-01    4.153062e+07    7.451850e-09    5.078665e-14    4.962193e-09    8.685625e-10    8.600000e-01    8.404747e-01    6.264267e-02
    1.805204e+01    7.107302e+02    1.242379e-01    4.637900e+07    7.696250e-09    5.706205e-14    5.319285e-09    9.260810e-10    8.700000e-01    8.404747e-01    6.698365e-02
    1.730234e+01    7.225798e+02    1.482582e-01    5.147160e+07    7.931880e-09    6.383025e-14    5.663215e-09    9.809500e-10    8.800000e-01    8.404747e-01    7.157667e-02
    1.657343e+01    7.333838e+02    1.756191e-01    5.679562e+07    8.156230e-09    7.108825e-14    5.990470e-09    1.032649e-09    8.900000e-01    8.404747e-01    7.640811e-02
    1.586736e+01    7.430021e+02    2.065417e-01    6.233679e+07    8.367355e-09    7.882975e-14    6.298390e-09    1.080803e-09    9.000000e-01    8.404747e-01    8.146341e-02
    1.518577e+01    7.513380e+02    2.412294e-01    6.807904e+07    8.563945e-09    8.704590e-14    6.585165e-09    1.125187e-09    9.100000e-01    8.404747e-01    8.672739e-02
    1.452999e+01    7.583376e+02    2.798646e-01    7.400498e+07    8.745255e-09    9.572595e-14    6.849830e-09    1.165712e-09    9.200000e-01    8.404747e-01    9.218453e-02
    1.390097e+01    7.639855e+02    3.226083e-01    8.009601e+07    8.911070e-09    1.048581e-13    7.092145e-09    1.202402e-09    9.300000e-01    8.404747e-01    9.781927e-02
    1.329936e+01    7.683016e+02    3.695988e-01    8.633296e+07    9.061600e-09    1.144300e-13    7.312485e-09    1.235381e-09    9.400000e-01    8.404747e-01    1.036162e-01
    1.272551e+01    7.713336e+02    4.209525e-01    9.269650e+07    9.197400e-09    1.244294e-13    7.511700e-09    1.264838e-09    9.500000e-01    8.404747e-01    1.095605e-01
    1.217945e+01    7.731507e+02    4.767642e-01    9.916753e+07    9.319270e-09    1.348447e-13    7.690985e-09    1.291013e-09    9.600000e-01    8.404747e-01    1.156379e-01
    1.166097e+01    7.738403e+02    5.371095e-01    1.057279e+08    9.428185e-09    1.456649e-13    7.851755e-09    1.314172e-09    9.700000e-01    8.404747e-01    1.218347e-01
    1.116961e+01    7.734973e+02    6.020455e-01    1.123606e+08    9.525190e-09    1.568801e-13    7.995545e-09    1.334596e-09    9.800000e-01    8.404747e-01    1.281384e-01
    1.070471e+01    7.722220e+02    6.716135e-01    1.190498e+08    9.611375e-09    1.684819e-13    8.123930e-09    1.352563e-09    9.900000e-01    8.404747e-01    1.345374e-01
    1.026541e+01    7.701159e+02    7.458410e-01    1.257813e+08    9.687830e-09    1.804630e-13    8.238475e-09    1.368343e-09    1.000000e+00    8.404747e-01    1.410208e-01
    9.850748e+00    7.672776e+02    8.247445e-01    1.325427e+08    9.755580e-09    1.928175e-13    8.340665e-09    1.382190e-09    1.010000e+00    8.404747e-01    1.475791e-01
    9.459656e+00    7.638015e+02    9.083290e-01    1.393226e+08    9.815605e-09    2.055407e-13    8.431895e-09    1.394338e-09    1.020000e+00    8.404747e-01    1.542034e-01
    9.091007e+00    7.597754e+02    9.965920e-01    1.461117e+08    9.868805e-09    2.186294e-13    8.513455e-09    1.405002e-09    1.030000e+00    8.404747e-01    1.608858e-01
    8.743618e+00    7.552790e+02    1.089526e+00    1.529017e+08    9.915995e-09    2.320813e-13    8.586515e-09    1.414372e-09    1.040000e+00    8.404747e-01    1.676193e-01
    8.416320e+00    7.503858e+02    1.187114e+00    1.596858e+08    9.957920e-09    2.458957e-13    8.652120e-09    1.422618e-09    1.050000e+00    8.404747e-01    1.743977e-01
    8.107933e+00    7.451603e+02    1.289342e+00    1.664583e+08    9.995230e-09    2.600724e-13    8.711215e-09    1.429893e-09    1.060000e+00    8.404747e-01    1.812156e-01
    7.817313e+00    7.396605e+02    1.396185e+00    1.732145e+08    1.002851e-08    2.746126e-13    8.764620e-09    1.436327e-09    1.070000e+00    8.404747e-01    1.880679e-01
    7.543336e+00    7.339358e+02    1.507622e+00    1.799504e+08    1.005827e-08    2.895183e-13    8.813065e-09    1.442035e-09    1.080000e+00    8.404747e-01    1.949505e-01
    7.284942e+00    7.280308e+02    1.623627e+00    1.866630e+08    1.008496e-08    3.047921e-13    8.857180e-09    1.447115e-09    1.090000e+00    8.404747e-01    2.018597e-01
    7.041109e+00    7.219833e+02    1.744174e+00    1.933498e+08    1.010898e-08    3.204377e-13    8.897525e-09    1.451655e-09    1.100000e+00    8.404747e-01    2.087922e-01
    6.810866e+00    7.158254e+02    1.869236e+00    2.000088e+08    1.013066e-08    3.364593e-13    8.934580e-09    1.455729e-09    1.110000e+00    8.404747e-01    2.157451e-01
    6.593310e+00    7.095851e+02    1.998787e+00    2.066388e+08    1.015029e-08    3.528618e-13    8.968765e-09    1.459399e-09    1.120000e+00    8.404747e-01    2.227159e-01
    6.387583e+00    7.032862e+02    2.132799e+00    2.132383e+08    1.016814e-08    3.696507e-13    9.000430e-09    1.462721e-09    1.130000e+00    8.404747e-01    2.297026e-01
    6.192888e+00    6.969485e+02    2.271247e+00    2.198069e+08    1.018442e-08    3.868319e-13    9.029900e-09    1.465741e-09    1.140000e+00    8.404747e-01    2.367032e-01
    6.008478e+00    6.905886e+02    2.414102e+00    2.263437e+08    1.019933e-08    4.044121e-13    9.057440e-09    1.468499e-09    1.150000e+00    8.404747e-01    2.437161e-01
    5.833660e+00    6.842205e+02    2.561339e+00    2.328485e+08    1.021303e-08    4.223983e-13    9.083280e-09    1.471031e-09    1.160000e+00    8.404747e-01    2.507400e-01
    5.667793e+00    6.778565e+02    2.712932e+00    2.393213e+08    1.022567e-08    4.407979e-13    9.107620e-09    1.473364e-09    1.170000e+00    8.404747e-01    2.577735e-01
    5.510275e+00    6.715052e+02    2.868857e+00    2.457616e+08    1.023737e-08    4.596189e-13    9.130635e-09    1.475525e-09    1.180000e+00    8.404747e-01    2.648157e-01
    5.360554e+00    6.651753e+02    3.029088e+00    2.521697e+08    1.024823e-08    4.788696e-13    9.152475e-09    1.477534e-09    1.190000e+00    8.404747e-01    2.718656e-01
    5.218117e+00    6.588728e+02    3.193601e+00    2.585456e+08    1.025835e-08    4.985588e-13    9.173275e-09    1.479411e-09    1.200000e+00    8.404747e-01    2.789225e-01
    5.082489e+00    6.526034e+02    3.362372e+00    2.648896e+08    1.026780e-08    5.186955e-13    9.193135e-09    1.481171e-09    1.210000e+00    8.404747e-01    2.859856e-01
    4.953230e+00    6.463708e+02    3.535377e+00    2.712017e+08    1.027666e-08    5.392890e-13    9.212165e-09    1.482827e-09    1.220000e+00    8.404747e-01    2.930545e-01
    4.829933e+00    6.401784e+02    3.712594e+00    2.774820e+08    1.028499e-08    5.603500e-13    9.230435e-09    1.484391e-09    1.230000e+00    8.404747e-01    3.001285e-01
    4.712221e+00    6.340288e+02    3.894001e+00    2.837311e+08    1.029284e-08    5.818875e-13    9.248030e-09    1.485874e-09    1.240000e+00    8.404747e-01    3.072074e-01
    4.599747e+00    6.279238e+02    4.079575e+00    2.899487e+08    1.030025e-08    6.039130e-13    9.265010e-09    1.487283e-09    1.250000e+00    8.404747e-01    3.142907e-01
    4.492187e+00    6.218650e+02    4.269293e+00    2.961355e+08    1.030726e-08    6.264370e-13    9.281435e-09    1.488626e-09    1.260000e+00    8.404747e-01    3.213780e-01
    4.389242e+00    6.158530e+02    4.463137e+00    3.022916e+08    1.031392e-08    6.494710e-13    9.297345e-09    1.489911e-09    1.270000e+00    8.404747e-01    3.284693e-01
    4.290634e+00    6.098885e+02    4.661082e+00    3.084170e+08    1.032025e-08    6.730265e-13    9.312785e-09    1.491141e-09    1.280000e+00    8.404747e-01    3.355641e-01
    4.196108e+00    6.039722e+02    4.863109e+00    3.145122e+08    1.032627e-08    6.971155e-13    9.327800e-09    1.492323e-09    1.290000e+00    8.404747e-01    3.426624e-01
    4.105425e+00    5.981036e+02    5.069195e+00    3.205771e+08    1.033201e-08    7.217505e-13    9.342415e-09    1.493460e-09    1.300000e+00    8.404747e-01    3.497640e-01
    4.018360e+00    5.922828e+02    5.279325e+00    3.266121e+08    1.033749e-08    7.469445e-13    9.356665e-09    1.494556e-09    1.310000e+00    8.404747e-01    3.568687e-01
    3.934711e+00    5.865096e+02    5.493475e+00    3.326172e+08    1.034274e-08    7.727105e-13    9.370575e-09    1.495615e-09    1.320000e+00    8.404747e-01    3.639765e-01
    3.854286e+00    5.807836e+02    5.711625e+00    3.385925e+08    1.034776e-08    7.990615e-13    9.384165e-09    1.496639e-09    1.330000e+00    8.404747e-01    3.710873e-01
    3.776905e+00    5.751040e+02    5.933755e+00    3.445382e+08    1.035258e-08    8.260120e-13    9.397455e-09    1.497631e-09    1.340000e+00    8.404747e-01    3.782009e-01
    3.702409e+00    5.694706e+02    6.159840e+00    3.504548e+08    1.035719e-08    8.535765e-13    9.410470e-09    1.498593e-09    1.350000e+00    8.404747e-01    3.853174e-01
    3.630634e+00    5.638823e+02    6.389870e+00    3.563416e+08    1.036163e-08    8.817690e-13    9.423225e-09    1.499527e-09    1.360000e+00    8.404747e-01    3.924367e-01
    3.561442e+00    5.583389e+02    6.623820e+00    3.621994e+08    1.036590e-08    9.106055e-13    9.435735e-09    1.500435e-09    1.370000e+00    8.404747e-01    3.995588e-01
    3.494696e+00    5.528392e+02    6.861670e+00    3.680279e+08    1.037000e-08    9.401010e-13    9.448010e-09    1.501318e-09    1.380000e+00    8.404747e-01    4.066836e-01
    3.430270e+00    5.473828e+02    7.103405e+00    3.738273e+08    1.037395e-08    9.702715e-13    9.460065e-09    1.502179e-09    1.390000e+00    8.404747e-01    4.138112e-01
    3.368050e+00    5.419688e+02    7.348995e+00    3.795976e+08    1.037775e-08    1.001134e-12    9.471910e-09    1.503017e-09    1.400000e+00    8.404747e-01    4.209415e-01
    3.307923e+00    5.365966e+02    7.598430e+00    3.853388e+08    1.038142e-08    1.032705e-12    9.483560e-09    1.503835e-09    1.410000e+00    8.404747e-01    4.280746e-01
    3.249786e+00    5.312651e+02    7.851690e+00    3.910510e+08    1.038496e-08    1.065002e-12    9.495020e-09    1.504634e-09    1.420000e+00    8.404747e-01    4.352105e-01
    3.193544e+00    5.259738e+02    8.108750e+00    3.967343e+08    1.038837e-08    1.098043e-12    9.506300e-09    1.505413e-09    1.430000e+00    8.404747e-01    4.423492e-01
    3.139105e+00    5.207217e+02    8.369595e+00    4.023885e+08    1.039166e-08    1.131847e-12    9.517405e-09    1.506176e-09    1.440000e+00    8.404747e-01    4.494907e-01
    3.086385e+00    5.155089e+02    8.634205e+00    4.080138e+08    1.039484e-08    1.166432e-12    9.528350e-09    1.506922e-09    1.450000e+00    8.404747e-01    4.566350e-01
    3.035304e+00    5.103334e+02    8.902560e+00    4.136099e+08    1.039792e-08    1.201819e-12    9.539140e-09    1.507651e-09    1.460000e+00    8.404747e-01    4.637821e-01
    2.985787e+00    5.051955e+02    9.174640e+00    4.191774e+08    1.040088e-08    1.238025e-12    9.549775e-09    1.508366e-09    1.470000e+00    8.404747e-01    4.709322e-01
    2.937764e+00    5.000944e+02    9.450425e+00    4.247158e+08    1.040375e-08    1.275075e-12    9.560270e-09    1.509065e-09    1.480000e+00    8.404747e-01    4.780852e-01
    2.891167e+00    4.950293e+02    9.729895e+00    4.302251e+08    1.040652e-08    1.312987e-12    9.570625e-09    1.509751e-09    1.490000e+00    8.404747e-01    4.852412e-01
    2.845936e+00    4.899992e+02    1.001303e+01    4.357056e+08    1.040920e-08    1.351784e-12    9.580845e-09    1.510423e-09    1.500000e+00    8.404747e-01    4.924002e-01
    2.802009e+00    4.850037e+02    1.029982e+01    4.411570e+08    1.041180e-08    1.391488e-12    9.590935e-09    1.511082e-09    1.510000e+00    8.404747e-01    4.995622e-01
    2.759331e+00    4.800426e+02    1.059023e+01    4.465795e+08    1.041431e-08    1.432123e-12    9.600905e-09    1.511729e-09    1.520000e+00    8.404747e-01    5.067274e-01
    2.717850e+00    4.751151e+02    1.088425e+01    4.519728e+08    1.041674e-08    1.473713e-12    9.610755e-09    1.512364e-09    1.530000e+00    8.404747e-01    5.138957e-01
    2.677517e+00    4.702203e+02    1.118186e+01    4.573371e+08    1.041909e-08    1.516281e-12    9.620490e-09    1.512987e-09    1.540000e+00    8.404747e-01    5.210671e-01
    2.638283e+00    4.653582e+02    1.148304e+01    4.626724e+08    1.042137e-08    1.559854e-12    9.630115e-09    1.513600e-09    1.550000e+00    8.404747e-01    5.282418e-01
    2.600105e+00    4.605277e+02    1.178776e+01    4.679786e+08    1.042356e-08    1.604457e-12    9.639630e-09    1.514201e-09    1.560000e+00    8.404747e-01    5.354198e-01
    2.562940e+00    4.557288e+02    1.209602e+01    4.732557e+08    1.042570e-08    1.650116e-12    9.649045e-09    1.514793e-09    1.570000e+00    8.404747e-01    5.426011e-01
    2.526749e+00    4.509609e+02    1.240778e+01    4.785036e+08    1.042776e-08    1.696860e-12    9.658360e-09    1.515373e-09    1.580000e+00    8.404747e-01    5.497857e-01
    2.491492e+00    4.462236e+02    1.272304e+01    4.837225e+08    1.042975e-08    1.744717e-12    9.667575e-09    1.515945e-09    1.590000e+00    8.404747e-01    5.569738e-01
    2.457136e+00    4.415159e+02    1.304176e+01    4.889121e+08    1.043169e-08    1.793716e-12    9.676700e-09    1.516508e-09    1.600000e+00    8.404747e-01    5.641654e-01
    2.423644e+00    4.368381e+02    1.336394e+01    4.940727e+08    1.043356e-08    1.843887e-12    9.685730e-09    1.517061e-09    1.610000e+00    8.404747e-01    5.713605e-01
    2.390985e+00    4.321894e+02    1.368955e+01    4.992039e+08    1.043538e-08    1.895260e-12    9.694675e-09    1.517607e-09    1.620000e+00    8.404747e-01    5.785592e-01
    2.359129e+00    4.275693e+02    1.401856e+01    5.043060e+08    1.043713e-08    1.947868e-12    9.703535e-09    1.518143e-09    1.630000e+00    8.404747e-01    5.857616e-01
    2.328045e+00    4.229777e+02    1.435097e+01    5.093788e+08    1.043883e-08    2.001745e-12    9.712310e-09    1.518672e-09    1.640000e+00    8.404747e-01    5.929676e-01
    2.297705e+00    4.184143e+02    1.468675e+01    5.144225e+08    1.044048e-08    2.056923e-12    9.721005e-09    1.519192e-09    1.650000e+00    8.404747e-01    6.001773e-01
    2.268084e+00    4.138784e+02    1.502588e+01    5.194367e+08    1.044207e-08    2.113438e-12    9.729625e-09    1.519706e-09    1.660000e+00    8.404747e-01    6.073909e-01
    2.239157e+00    4.093696e+02    1.536834e+01    5.244220e+08    1.044361e-08    2.171325e-12    9.738165e-09    1.520211e-09    1.670000e+00    8.404747e-01    6.146083e-01
