# GF180MCU-D nfet_03v3 gm/ID Processed Lookup Table
# Corner: ss
# Temperature: -40C
# W = 2.0 um
# L = 3 um (3000 nm)
# Columns: gm/id [1/V]  gm/gds [V/V]  id/W [A/m]  ft [Hz]  Cgg/W [F/m]  Cgd/W [F/m]  Cgs/W [F/m]  Cdb/W [F/m]  vgs [V]  vth [V]  vdsat [V]
# vdsat = BSIM saturation voltage (|VDS|_sat, positive); use for headroom / saturation / cascode-bias calculations
#           gm/id          gm/gds            id/W              ft           Cgg/W           Cgd/W           Cgs/W           Cdb/W             vgs             vth           vdsat
    3.387059e+01    5.952650e+02    5.599450e-05    8.122909e+04    3.716009e-09    6.552010e-16    6.645010e-11    1.865363e-11    5.900000e-01    8.426981e-01    2.917959e-02
    3.386728e+01    5.928768e+02    7.857175e-05    1.139851e+05    3.715513e-09    7.727540e-16    8.281510e-11    2.187631e-11    6.000000e-01    8.426981e-01    2.919264e-02
    3.379482e+01    5.901238e+02    1.102095e-04    1.594694e+05    3.717165e-09    9.110985e-16    1.021009e-10    2.565417e-11    6.100000e-01    8.426981e-01    2.921090e-02
    3.366181e+01    5.869755e+02    1.544269e-04    2.223216e+05    3.721337e-09    1.073914e-15    1.248373e-10    3.008331e-11    6.200000e-01    8.426981e-01    2.923638e-02
    3.347329e+01    5.834093e+02    2.160367e-04    3.086859e+05    3.728459e-09    1.265536e-15    1.516464e-10    3.527526e-11    6.300000e-01    8.426981e-01    2.927182e-02
    3.323187e+01    5.794189e+02    3.015767e-04    4.265919e+05    3.739041e-09    1.491062e-15    1.832523e-10    4.135852e-11    6.400000e-01    8.426981e-01    2.932091e-02
    3.293866e+01    5.750205e+02    4.198623e-04    5.863774e+05    3.753667e-09    1.756472e-15    2.204910e-10    4.847984e-11    6.500000e-01    8.426981e-01    2.938853e-02
    3.259406e+01    5.702614e+02    5.826810e-04    8.011278e+05    3.773008e-09    2.068759e-15    2.643174e-10    5.680530e-11    6.600000e-01    8.426981e-01    2.948117e-02
    3.219860e+01    5.652305e+02    8.056520e-04    1.087101e+06    3.797822e-09    2.436069e-15    3.158106e-10    6.652070e-11    6.700000e-01    8.426981e-01    2.960718e-02
    3.175339e+01    5.600645e+02    1.109272e-03    1.464089e+06    3.828959e-09    2.867849e-15    3.761748e-10    7.783150e-11    6.800000e-01    8.426981e-01    2.977725e-02
    3.126061e+01    5.549545e+02    1.520164e-03    1.955664e+06    3.867354e-09    3.374997e-15    4.467349e-10    9.096120e-11    6.900000e-01    8.426981e-01    3.000469e-02
    3.072374e+01    5.501456e+02    2.072554e-03    2.589267e+06    3.914021e-09    3.970006e-15    5.289250e-10    1.061487e-10    7.000000e-01    8.426981e-01    3.030573e-02
    3.014742e+01    5.459272e+02    2.809971e-03    3.396074e+06    3.970040e-09    4.667094e-15    6.242660e-10    1.236434e-10    7.100000e-01    8.426981e-01    3.069961e-02
    2.953695e+01    5.426175e+02    3.787204e-03    4.410586e+06    4.036530e-09    5.482320e-15    7.343285e-10    1.436985e-10    7.200000e-01    8.426981e-01    3.120842e-02
    2.889766e+01    5.405357e+02    5.072475e-03    5.669881e+06    4.114610e-09    6.433645e-15    8.606825e-10    1.665603e-10    7.300000e-01    8.426981e-01    3.185668e-02
    2.823409e+01    5.399698e+02    6.749790e-03    7.212420e+06    4.205360e-09    7.540945e-15    1.004827e-09    1.924561e-10    7.400000e-01    8.426981e-01    3.267051e-02
    2.754928e+01    5.411435e+02    8.921380e-03    9.076345e+06    4.309744e-09    8.825960e-15    1.168096e-09    2.215771e-10    7.500000e-01    8.426981e-01    3.367656e-02
    2.684476e+01    5.441893e+02    1.170999e-02    1.129731e+07    4.428543e-09    1.031211e-14    1.351556e-09    2.540603e-10    7.600000e-01    8.426981e-01    3.490069e-02
    2.612078e+01    5.491339e+02    1.526085e-02    1.390607e+07    4.562266e-09    1.202422e-14    1.555877e-09    2.899676e-10    7.700000e-01    8.426981e-01    3.636671e-02
    2.537720e+01    5.559009e+02    1.974306e-02    1.692622e+07    4.711057e-09    1.398814e-14    1.781207e-09    3.292653e-10    7.800000e-01    8.426981e-01    3.809520e-02
    2.461438e+01    5.643202e+02    2.535002e-02    2.037264e+07    4.874612e-09    1.623020e-14    2.027054e-09    3.718066e-10    7.900000e-01    8.426981e-01    4.010266e-02
    2.383392e+01    5.741545e+02    3.229907e-02    2.425118e+07    5.052110e-09    1.877653e-14    2.292189e-09    4.173189e-10    8.000000e-01    8.426981e-01    4.240113e-02
    2.303894e+01    5.851226e+02    4.083000e-02    2.855952e+07    5.242170e-09    2.165237e-14    2.574601e-09    4.653997e-10    8.100000e-01    8.426981e-01    4.499807e-02
    2.223389e+01    5.969212e+02    5.120265e-02    3.328898e+07    5.442865e-09    2.488128e-14    2.871500e-09    5.155230e-10    8.200000e-01    8.426981e-01    4.789668e-02
    2.142402e+01    6.092409e+02    6.369370e-02    3.842663e+07    5.651780e-09    2.848434e-14    3.179403e-09    5.670585e-10    8.300000e-01    8.426981e-01    5.109631e-02
    2.061483e+01    6.217800e+02    7.859280e-02    4.395763e+07    5.866085e-09    3.247951e-14    3.494285e-09    6.193005e-10    8.400000e-01    8.426981e-01    5.459301e-02
    1.981160e+01    6.342514e+02    9.619790e-02    4.986624e+07    6.082730e-09    3.688112e-14    3.811789e-09    6.715070e-10    8.500000e-01    8.426981e-01    5.838003e-02
    1.901901e+01    6.463886e+02    1.168105e-01    5.613678e+07    6.298575e-09    4.169950e-14    4.127475e-09    7.229415e-10    8.600000e-01    8.426981e-01    6.244828e-02
    1.824113e+01    6.579518e+02    1.407298e-01    6.275331e+07    6.510600e-09    4.694093e-14    4.437073e-09    7.729145e-10    8.700000e-01    8.426981e-01    6.678676e-02
    1.748126e+01    6.687320e+02    1.682480e-01    6.969929e+07    6.716055e-09    5.260775e-14    4.736716e-09    8.208220e-10    8.800000e-01    8.426981e-01    7.138283e-02
    1.674214e+01    6.785560e+02    1.996447e-01    7.695713e+07    6.912580e-09    5.869870e-14    5.023125e-09    8.661685e-10    8.900000e-01    8.426981e-01    7.622263e-02
    1.602600e+01    6.872896e+02    2.351825e-01    8.450733e+07    7.098325e-09    6.520940e-14    5.293715e-09    9.085845e-10    9.000000e-01    8.426981e-01    8.129128e-02
    1.533458e+01    6.948394e+02    2.751027e-01    9.232863e+07    7.271945e-09    7.213305e-14    5.546655e-09    9.478280e-10    9.100000e-01    8.426981e-01    8.657327e-02
    1.466926e+01    7.011498e+02    3.196232e-01    1.003979e+08    7.432620e-09    7.946095e-14    5.780845e-09    9.837790e-10    9.200000e-01    8.426981e-01    9.205271e-02
    1.403103e+01    7.062034e+02    3.689356e-01    1.086903e+08    7.580005e-09    8.718320e-14    5.995855e-09    1.016425e-09    9.300000e-01    8.426981e-01    9.771364e-02
    1.342059e+01    7.100163e+02    4.232054e-01    1.171805e+08    7.714140e-09    9.528935e-14    6.191820e-09    1.045842e-09    9.400000e-01    8.426981e-01    1.035403e-01
    1.283827e+01    7.126289e+02    4.825715e-01    1.258424e+08    7.835405e-09    1.037688e-13    6.369330e-09    1.072172e-09    9.500000e-01    8.426981e-01    1.095173e-01
    1.228416e+01    7.141057e+02    5.471475e-01    1.346503e+08    7.944425e-09    1.126112e-13    6.529310e-09    1.095607e-09    9.600000e-01    8.426981e-01    1.156301e-01
    1.175803e+01    7.145260e+02    6.170230e-01    1.435797e+08    8.041980e-09    1.218068e-13    6.672925e-09    1.116371e-09    9.700000e-01    8.426981e-01    1.218645e-01
    1.125942e+01    7.139779e+02    6.922670e-01    1.526071e+08    8.128960e-09    1.313471e-13    6.801455e-09    1.134700e-09    9.800000e-01    8.426981e-01    1.282077e-01
    1.078767e+01    7.125556e+02    7.729275e-01    1.617110e+08    8.206295e-09    1.412240e-13    6.916255e-09    1.150835e-09    9.900000e-01    8.426981e-01    1.346475e-01
    1.034194e+01    7.103540e+02    8.590370e-01    1.708717e+08    8.274920e-09    1.514310e-13    7.018680e-09    1.165011e-09    1.000000e+00    8.426981e-01    1.411729e-01
    9.921235e+00    7.074658e+02    9.506140e-01    1.800718e+08    8.335745e-09    1.619627e-13    7.110030e-09    1.177451e-09    1.010000e+00    8.426981e-01    1.477739e-01
    9.524499e+00    7.039807e+02    1.047663e+00    1.892959e+08    8.389625e-09    1.728147e-13    7.191540e-09    1.188365e-09    1.020000e+00    8.426981e-01    1.544412e-01
    9.150572e+00    6.999806e+02    1.150181e+00    1.985306e+08    8.437365e-09    1.839837e-13    7.264350e-09    1.197939e-09    1.030000e+00    8.426981e-01    1.611669e-01
    8.798275e+00    6.955422e+02    1.258154e+00    2.077645e+08    8.479695e-09    1.954675e-13    7.329510e-09    1.206349e-09    1.040000e+00    8.426981e-01    1.679435e-01
    8.466402e+00    6.907339e+02    1.371565e+00    2.169877e+08    8.517270e-09    2.072650e-13    7.387955e-09    1.213744e-09    1.050000e+00    8.426981e-01    1.747647e-01
    8.153772e+00    6.856175e+02    1.490390e+00    2.261922e+08    8.550685e-09    2.193760e-13    7.440525e-09    1.220261e-09    1.060000e+00    8.426981e-01    1.816248e-01
    7.859209e+00    6.802475e+02    1.614602e+00    2.353713e+08    8.580465e-09    2.318011e-13    7.487960e-09    1.226019e-09    1.070000e+00    8.426981e-01    1.885186e-01
    7.581583e+00    6.746717e+02    1.744170e+00    2.445196e+08    8.607065e-09    2.445419e-13    7.530925e-09    1.231120e-09    1.080000e+00    8.426981e-01    1.954418e-01
    7.319801e+00    6.689312e+02    1.879062e+00    2.536324e+08    8.630895e-09    2.576005e-13    7.569985e-09    1.235655e-09    1.090000e+00    8.426981e-01    2.023906e-01
    7.072830e+00    6.630624e+02    2.019246e+00    2.627062e+08    8.652310e-09    2.709798e-13    7.605640e-09    1.239701e-09    1.100000e+00    8.426981e-01    2.093615e-01
    6.839683e+00    6.570957e+02    2.164686e+00    2.717382e+08    8.671620e-09    2.846832e-13    7.638335e-09    1.243326e-09    1.110000e+00    8.426981e-01    2.163516e-01
    6.619436e+00    6.510577e+02    2.315349e+00    2.807266e+08    8.689085e-09    2.987149e-13    7.668435e-09    1.246587e-09    1.120000e+00    8.426981e-01    2.233583e-01
    6.411216e+00    6.449705e+02    2.471201e+00    2.896695e+08    8.704940e-09    3.130796e-13    7.696280e-09    1.249533e-09    1.130000e+00    8.426981e-01    2.303794e-01
    6.214209e+00    6.388529e+02    2.632205e+00    2.985657e+08    8.719385e-09    3.277821e-13    7.722140e-09    1.252207e-09    1.140000e+00    8.426981e-01    2.374130e-01
    6.027658e+00    6.327210e+02    2.798331e+00    3.074146e+08    8.732595e-09    3.428283e-13    7.746265e-09    1.254646e-09    1.150000e+00    8.426981e-01    2.444574e-01
    5.850854e+00    6.265876e+02    2.969542e+00    3.162153e+08    8.744720e-09    3.582239e-13    7.768865e-09    1.256880e-09    1.160000e+00    8.426981e-01    2.515112e-01
    5.683142e+00    6.204639e+02    3.145806e+00    3.249678e+08    8.755890e-09    3.739754e-13    7.790120e-09    1.258936e-09    1.170000e+00    8.426981e-01    2.585730e-01
    5.523912e+00    6.143588e+02    3.327092e+00    3.336719e+08    8.766215e-09    3.900897e-13    7.810190e-09    1.260838e-09    1.180000e+00    8.426981e-01    2.656418e-01
    5.372601e+00    6.082796e+02    3.513367e+00    3.423276e+08    8.775790e-09    4.065736e-13    7.829205e-09    1.262603e-09    1.190000e+00    8.426981e-01    2.727167e-01
    5.228684e+00    6.022327e+02    3.704600e+00    3.509351e+08    8.784700e-09    4.234350e-13    7.847290e-09    1.264249e-09    1.200000e+00    8.426981e-01    2.797969e-01
    5.091678e+00    5.962225e+02    3.900760e+00    3.594945e+08    8.793020e-09    4.406815e-13    7.864535e-09    1.265790e-09    1.210000e+00    8.426981e-01    2.868816e-01
    4.961136e+00    5.902530e+02    4.101818e+00    3.680061e+08    8.800810e-09    4.583213e-13    7.881040e-09    1.267240e-09    1.220000e+00    8.426981e-01    2.939704e-01
    4.836643e+00    5.843271e+02    4.307743e+00    3.764703e+08    8.808120e-09    4.763628e-13    7.896875e-09    1.268606e-09    1.230000e+00    8.426981e-01    3.010626e-01
    4.717816e+00    5.784472e+02    4.518508e+00    3.848873e+08    8.815005e-09    4.948149e-13    7.912100e-09    1.269901e-09    1.240000e+00    8.426981e-01    3.081578e-01
    4.604300e+00    5.726149e+02    4.734083e+00    3.932577e+08    8.821500e-09    5.136865e-13    7.926785e-09    1.271130e-09    1.250000e+00    8.426981e-01    3.152558e-01
    4.495767e+00    5.668314e+02    4.954441e+00    4.015813e+08    8.827650e-09    5.329875e-13    7.940970e-09    1.272300e-09    1.260000e+00    8.426981e-01    3.223560e-01
    4.391909e+00    5.610976e+02    5.179555e+00    4.098589e+08    8.833475e-09    5.527270e-13    7.954705e-09    1.273417e-09    1.270000e+00    8.426981e-01    3.294584e-01
    4.292450e+00    5.554139e+02    5.409395e+00    4.180909e+08    8.839005e-09    5.729155e-13    7.968030e-09    1.274488e-09    1.280000e+00    8.426981e-01    3.365626e-01
    4.197128e+00    5.497805e+02    5.643935e+00    4.262772e+08    8.844275e-09    5.935635e-13    7.980970e-09    1.275515e-09    1.290000e+00    8.426981e-01    3.436686e-01
    4.105695e+00    5.441973e+02    5.883150e+00    4.344185e+08    8.849290e-09    6.146815e-13    7.993560e-09    1.276502e-09    1.300000e+00    8.426981e-01    3.507760e-01
    4.017930e+00    5.386642e+02    6.127015e+00    4.425150e+08    8.854080e-09    6.362800e-13    8.005830e-09    1.277453e-09    1.310000e+00    8.426981e-01    3.578849e-01
    3.933622e+00    5.331808e+02    6.375500e+00    4.505666e+08    8.858660e-09    6.583710e-13    8.017795e-09    1.278372e-09    1.320000e+00    8.426981e-01    3.649950e-01
    3.852580e+00    5.277465e+02    6.628580e+00    4.585739e+08    8.863045e-09    6.809660e-13    8.029485e-09    1.279260e-09    1.330000e+00    8.426981e-01    3.721064e-01
    3.774618e+00    5.223609e+02    6.886235e+00    4.665372e+08    8.867245e-09    7.040770e-13    8.040910e-09    1.280119e-09    1.340000e+00    8.426981e-01    3.792189e-01
    3.699573e+00    5.170235e+02    7.148430e+00    4.744565e+08    8.871275e-09    7.277165e-13    8.052090e-09    1.280952e-09    1.350000e+00    8.426981e-01    3.863325e-01
    3.627283e+00    5.117331e+02    7.415150e+00    4.823319e+08    8.875145e-09    7.518970e-13    8.063045e-09    1.281761e-09    1.360000e+00    8.426981e-01    3.934473e-01
    3.557607e+00    5.064891e+02    7.686360e+00    4.901642e+08    8.878860e-09    7.766320e-13    8.073785e-09    1.282547e-09    1.370000e+00    8.426981e-01    4.005630e-01
    3.490404e+00    5.012913e+02    7.962040e+00    4.979528e+08    8.882435e-09    8.019340e-13    8.084315e-09    1.283311e-09    1.380000e+00    8.426981e-01    4.076798e-01
    3.425549e+00    4.961383e+02    8.242165e+00    5.056979e+08    8.885880e-09    8.278180e-13    8.094660e-09    1.284055e-09    1.390000e+00    8.426981e-01    4.147976e-01
    3.362922e+00    4.910297e+02    8.526710e+00    5.134001e+08    8.889195e-09    8.542980e-13    8.104815e-09    1.284780e-09    1.400000e+00    8.426981e-01    4.219165e-01
    3.302411e+00    4.859642e+02    8.815650e+00    5.210592e+08    8.892390e-09    8.813880e-13    8.114805e-09    1.285487e-09    1.410000e+00    8.426981e-01    4.290365e-01
    3.243913e+00    4.809416e+02    9.108960e+00    5.286755e+08    8.895470e-09    9.091040e-13    8.124625e-09    1.286177e-09    1.420000e+00    8.426981e-01    4.361575e-01
    3.187328e+00    4.759609e+02    9.406615e+00    5.362489e+08    8.898440e-09    9.374610e-13    8.134290e-09    1.286851e-09    1.430000e+00    8.426981e-01    4.432796e-01
    3.132567e+00    4.710213e+02    9.708590e+00    5.437794e+08    8.901310e-09    9.664750e-13    8.143805e-09    1.287510e-09    1.440000e+00    8.426981e-01    4.504028e-01
    3.079541e+00    4.661219e+02    1.001487e+01    5.512676e+08    8.904075e-09    9.961620e-13    8.153175e-09    1.288154e-09    1.450000e+00    8.426981e-01    4.575272e-01
    3.028173e+00    4.612624e+02    1.032540e+01    5.587128e+08    8.906750e-09    1.026540e-12    8.162410e-09    1.288784e-09    1.460000e+00    8.426981e-01    4.646528e-01
    2.978382e+00    4.564418e+02    1.064020e+01    5.661154e+08    8.909335e-09    1.057626e-12    8.171515e-09    1.289400e-09    1.470000e+00    8.426981e-01    4.717797e-01
    2.930100e+00    4.516591e+02    1.095921e+01    5.734753e+08    8.911835e-09    1.089437e-12    8.180490e-09    1.290004e-09    1.480000e+00    8.426981e-01    4.789078e-01
    2.883260e+00    4.469145e+02    1.128242e+01    5.807933e+08    8.914245e-09    1.121992e-12    8.189350e-09    1.290596e-09    1.490000e+00    8.426981e-01    4.860372e-01
    2.837795e+00    4.422063e+02    1.160981e+01    5.880684e+08    8.916580e-09    1.155309e-12    8.198090e-09    1.291176e-09    1.500000e+00    8.426981e-01    4.931681e-01
    2.793649e+00    4.375346e+02    1.194134e+01    5.953010e+08    8.918840e-09    1.189409e-12    8.206720e-09    1.291744e-09    1.510000e+00    8.426981e-01    5.003003e-01
    2.750764e+00    4.328986e+02    1.227699e+01    6.024913e+08    8.921025e-09    1.224312e-12    8.215240e-09    1.292303e-09    1.520000e+00    8.426981e-01    5.074340e-01
    2.709087e+00    4.282975e+02    1.261675e+01    6.096396e+08    8.923135e-09    1.260038e-12    8.223660e-09    1.292850e-09    1.530000e+00    8.426981e-01    5.145692e-01
    2.668566e+00    4.237308e+02    1.296059e+01    6.167452e+08    8.925180e-09    1.296608e-12    8.231980e-09    1.293388e-09    1.540000e+00    8.426981e-01    5.217060e-01
    2.629157e+00    4.191983e+02    1.330847e+01    6.238084e+08    8.927160e-09    1.334044e-12    8.240200e-09    1.293916e-09    1.550000e+00    8.426981e-01    5.288445e-01
    2.590811e+00    4.146991e+02    1.366038e+01    6.308293e+08    8.929080e-09    1.372369e-12    8.248330e-09    1.294434e-09    1.560000e+00    8.426981e-01    5.359846e-01
    2.553487e+00    4.102324e+02    1.401629e+01    6.378084e+08    8.930930e-09    1.411606e-12    8.256370e-09    1.294944e-09    1.570000e+00    8.426981e-01    5.431264e-01
    2.517146e+00    4.057982e+02    1.437617e+01    6.447446e+08    8.932730e-09    1.451778e-12    8.264325e-09    1.295445e-09    1.580000e+00    8.426981e-01    5.502701e-01
    2.481747e+00    4.013960e+02    1.474002e+01    6.516392e+08    8.934465e-09    1.492910e-12    8.272190e-09    1.295938e-09    1.590000e+00    8.426981e-01    5.574156e-01
    2.447256e+00    3.970251e+02    1.510779e+01    6.584912e+08    8.936150e-09    1.535028e-12    8.279980e-09    1.296423e-09    1.600000e+00    8.426981e-01    5.645630e-01
    2.413637e+00    3.926851e+02    1.547947e+01    6.653012e+08    8.937780e-09    1.578157e-12    8.287685e-09    1.296900e-09    1.610000e+00    8.426981e-01    5.717124e-01
    2.380858e+00    3.883754e+02    1.585502e+01    6.720689e+08    8.939360e-09    1.622326e-12    8.295320e-09    1.297369e-09    1.620000e+00    8.426981e-01    5.788639e-01
    2.348886e+00    3.840960e+02    1.623443e+01    6.787949e+08    8.940885e-09    1.667559e-12    8.302875e-09    1.297831e-09    1.630000e+00    8.426981e-01    5.860174e-01
    2.317694e+00    3.798461e+02    1.661766e+01    6.854785e+08    8.942365e-09    1.713888e-12    8.310360e-09    1.298287e-09    1.640000e+00    8.426981e-01    5.931731e-01
    2.287252e+00    3.756253e+02    1.700471e+01    6.921200e+08    8.943800e-09    1.761340e-12    8.317780e-09    1.298736e-09    1.650000e+00    8.426981e-01    6.003310e-01
    2.257534e+00    3.714336e+02    1.739554e+01    6.987198e+08    8.945185e-09    1.809946e-12    8.325125e-09    1.299178e-09    1.660000e+00    8.426981e-01    6.074911e-01
    2.228514e+00    3.672701e+02    1.779012e+01    7.052773e+08    8.946530e-09    1.859738e-12    8.332410e-09    1.299613e-09    1.670000e+00    8.426981e-01    6.146536e-01
