# GF180MCU-D pfet_03v3 gm/ID Processed Lookup Table
# Corner: ff
# Temperature: -40C
# W = 2.0 um
# L = 6 um (6000 nm)
# Columns: gm/id [1/V]  gm/gds [V/V]  id/W [A/m]  ft [Hz]  Cgg/W [F/m]  Cgd/W [F/m]  Cgs/W [F/m]  Cdb/W [F/m]  vgs [V]  vth [V]  vdsat [V]
# vdsat = BSIM saturation voltage (|VDS|_sat, positive); use for headroom / saturation / cascode-bias calculations
#           gm/id          gm/gds            id/W              ft           Cgg/W           Cgd/W           Cgs/W           Cdb/W             vgs             vth           vdsat
    5.498886e-01    3.313500e+00    1.530469e+01    6.413563e+07    2.088431e-08    5.665455e-10    2.073717e-08    3.496484e-09   -3.300000e+00    7.158603e-01    1.945740e+00
    5.547783e-01    3.407290e+00    1.522053e+01    6.437775e+07    2.087534e-08    5.471225e-10    2.073526e-08    3.495691e-09   -3.290000e+00    7.158603e-01    1.937253e+00
    5.597342e-01    3.505749e+00    1.513581e+01    6.461802e+07    2.086671e-08    5.283365e-10    2.073301e-08    3.494880e-09   -3.280000e+00    7.158603e-01    1.928775e+00
    5.647414e-01    3.609205e+00    1.505095e+01    6.485636e+07    2.085841e-08    5.101725e-10    2.073043e-08    3.494053e-09   -3.270000e+00    7.158603e-01    1.920307e+00
    5.698049e-01    3.718010e+00    1.496581e+01    6.509264e+07    2.085042e-08    4.926153e-10    2.072751e-08    3.493212e-09   -3.260000e+00    7.158603e-01    1.911849e+00
    5.749244e-01    3.832542e+00    1.488040e+01    6.532666e+07    2.084275e-08    4.756491e-10    2.072427e-08    3.492356e-09   -3.250000e+00    7.158603e-01    1.903400e+00
    5.801006e-01    3.953223e+00    1.479471e+01    6.555842e+07    2.083538e-08    4.592583e-10    2.072073e-08    3.491487e-09   -3.240000e+00    7.158603e-01    1.894961e+00
    5.853322e-01    4.080500e+00    1.470875e+01    6.578764e+07    2.082831e-08    4.434272e-10    2.071689e-08    3.490608e-09   -3.230000e+00    7.158603e-01    1.886531e+00
    5.906189e-01    4.214865e+00    1.462252e+01    6.601419e+07    2.082153e-08    4.281405e-10    2.071276e-08    3.489717e-09   -3.220000e+00    7.158603e-01    1.878111e+00
    5.959607e-01    4.356850e+00    1.453603e+01    6.623791e+07    2.081502e-08    4.133823e-10    2.070835e-08    3.488816e-09   -3.210000e+00    7.158603e-01    1.869701e+00
    6.013565e-01    4.507037e+00    1.444927e+01    6.645859e+07    2.080879e-08    3.991375e-10    2.070366e-08    3.487906e-09   -3.200000e+00    7.158603e-01    1.861300e+00
    6.068052e-01    4.666055e+00    1.436224e+01    6.667599e+07    2.080283e-08    3.853907e-10    2.069872e-08    3.486988e-09   -3.190000e+00    7.158603e-01    1.852909e+00
    6.123062e-01    4.834592e+00    1.427497e+01    6.688993e+07    2.079712e-08    3.721267e-10    2.069351e-08    3.486062e-09   -3.180000e+00    7.158603e-01    1.844528e+00
    6.178580e-01    5.013394e+00    1.418744e+01    6.710017e+07    2.079166e-08    3.593306e-10    2.068806e-08    3.485131e-09   -3.170000e+00    7.158603e-01    1.836155e+00
    6.234594e-01    5.203277e+00    1.409965e+01    6.730645e+07    2.078644e-08    3.469878e-10    2.068237e-08    3.484194e-09   -3.160000e+00    7.158603e-01    1.827793e+00
    6.291083e-01    5.405121e+00    1.401163e+01    6.750848e+07    2.078144e-08    3.350836e-10    2.067645e-08    3.483252e-09   -3.150000e+00    7.158603e-01    1.819440e+00
    6.348028e-01    5.619882e+00    1.392336e+01    6.770590e+07    2.077669e-08    3.236040e-10    2.067031e-08    3.482306e-09   -3.140000e+00    7.158603e-01    1.811096e+00
    6.405409e-01    5.848608e+00    1.383486e+01    6.789851e+07    2.077215e-08    3.125349e-10    2.066395e-08    3.481357e-09   -3.130000e+00    7.158603e-01    1.802761e+00
    6.463202e-01    6.092427e+00    1.374612e+01    6.808588e+07    2.076782e-08    3.018626e-10    2.065739e-08    3.480406e-09   -3.120000e+00    7.158603e-01    1.794437e+00
    6.521379e-01    6.352566e+00    1.365717e+01    6.826773e+07    2.076369e-08    2.915738e-10    2.065062e-08    3.479452e-09   -3.110000e+00    7.158603e-01    1.786121e+00
    6.579911e-01    6.630355e+00    1.356799e+01    6.844369e+07    2.075976e-08    2.816555e-10    2.064366e-08    3.478497e-09   -3.100000e+00    7.158603e-01    1.777815e+00
    6.638768e-01    6.927223e+00    1.347861e+01    6.861335e+07    2.075603e-08    2.720948e-10    2.063652e-08    3.477541e-09   -3.090000e+00    7.158603e-01    1.769518e+00
    6.697917e-01    7.244725e+00    1.338904e+01    6.877638e+07    2.075247e-08    2.628794e-10    2.062919e-08    3.476584e-09   -3.080000e+00    7.158603e-01    1.761231e+00
    6.757317e-01    7.584523e+00    1.329927e+01    6.893231e+07    2.074910e-08    2.539971e-10    2.062169e-08    3.475628e-09   -3.070000e+00    7.158603e-01    1.752952e+00
    6.816937e-01    7.948408e+00    1.320931e+01    6.908076e+07    2.074590e-08    2.454361e-10    2.061402e-08    3.474673e-09   -3.060000e+00    7.158603e-01    1.744683e+00
    6.876731e-01    8.338297e+00    1.311917e+01    6.922132e+07    2.074286e-08    2.371850e-10    2.060619e-08    3.473718e-09   -3.050000e+00    7.158603e-01    1.736424e+00
    6.936658e-01    8.756238e+00    1.302888e+01    6.935360e+07    2.073998e-08    2.292327e-10    2.059820e-08    3.472765e-09   -3.040000e+00    7.158603e-01    1.728174e+00
    6.996681e-01    9.204418e+00    1.293842e+01    6.947720e+07    2.073725e-08    2.215684e-10    2.059007e-08    3.471813e-09   -3.030000e+00    7.158603e-01    1.719932e+00
    7.056751e-01    9.685140e+00    1.284783e+01    6.959169e+07    2.073467e-08    2.141817e-10    2.058178e-08    3.470864e-09   -3.020000e+00    7.158603e-01    1.711700e+00
    7.116829e-01    1.020085e+01    1.275710e+01    6.969676e+07    2.073223e-08    2.070622e-10    2.057336e-08    3.469917e-09   -3.010000e+00    7.158603e-01    1.703478e+00
    7.176876e-01    1.075413e+01    1.266625e+01    6.979204e+07    2.072993e-08    2.002004e-10    2.056480e-08    3.468973e-09   -3.000000e+00    7.158603e-01    1.695264e+00
    7.236844e-01    1.134765e+01    1.257530e+01    6.987718e+07    2.072775e-08    1.935866e-10    2.055611e-08    3.468032e-09   -2.990000e+00    7.158603e-01    1.687060e+00
    7.296697e-01    1.198421e+01    1.248424e+01    6.995188e+07    2.072571e-08    1.872118e-10    2.054730e-08    3.467093e-09   -2.980000e+00    7.158603e-01    1.678865e+00
    7.356402e-01    1.266673e+01    1.239311e+01    7.001596e+07    2.072378e-08    1.810669e-10    2.053835e-08    3.466159e-09   -2.970000e+00    7.158603e-01    1.670679e+00
    7.415918e-01    1.339815e+01    1.230191e+01    7.006912e+07    2.072197e-08    1.751434e-10    2.052930e-08    3.465228e-09   -2.960000e+00    7.158603e-01    1.662502e+00
    7.475213e-01    1.418153e+01    1.221066e+01    7.011121e+07    2.072026e-08    1.694331e-10    2.052013e-08    3.464300e-09   -2.950000e+00    7.158603e-01    1.654334e+00
    7.534272e-01    1.501996e+01    1.211936e+01    7.014217e+07    2.071867e-08    1.639280e-10    2.051085e-08    3.463377e-09   -2.940000e+00    7.158603e-01    1.646175e+00
    7.593058e-01    1.591654e+01    1.202804e+01    7.016187e+07    2.071717e-08    1.586203e-10    2.050146e-08    3.462457e-09   -2.930000e+00    7.158603e-01    1.638025e+00
    7.651567e-01    1.687438e+01    1.193671e+01    7.017036e+07    2.071578e-08    1.535025e-10    2.049197e-08    3.461541e-09   -2.920000e+00    7.158603e-01    1.629884e+00
    7.709777e-01    1.789651e+01    1.184538e+01    7.016762e+07    2.071448e-08    1.485677e-10    2.048238e-08    3.460630e-09   -2.910000e+00    7.158603e-01    1.621753e+00
    7.767686e-01    1.898598e+01    1.175406e+01    7.015377e+07    2.071327e-08    1.438088e-10    2.047270e-08    3.459723e-09   -2.900000e+00    7.158603e-01    1.613630e+00
    7.825286e-01    2.014565e+01    1.166277e+01    7.012892e+07    2.071215e-08    1.392191e-10    2.046292e-08    3.458820e-09   -2.890000e+00    7.158603e-01    1.605516e+00
    7.882584e-01    2.137834e+01    1.157154e+01    7.009331e+07    2.071110e-08    1.347924e-10    2.045304e-08    3.457922e-09   -2.880000e+00    7.158603e-01    1.597411e+00
    7.939585e-01    2.268667e+01    1.148035e+01    7.004712e+07    2.071013e-08    1.305224e-10    2.044309e-08    3.457028e-09   -2.870000e+00    7.158603e-01    1.589315e+00
    7.996306e-01    2.407310e+01    1.138924e+01    6.999065e+07    2.070925e-08    1.264031e-10    2.043304e-08    3.456138e-09   -2.860000e+00    7.158603e-01    1.581228e+00
    8.052750e-01    2.553987e+01    1.129822e+01    6.992414e+07    2.070843e-08    1.224289e-10    2.042291e-08    3.455253e-09   -2.850000e+00    7.158603e-01    1.573150e+00
    8.108944e-01    2.708898e+01    1.120728e+01    6.984793e+07    2.070768e-08    1.185942e-10    2.041270e-08    3.454372e-09   -2.840000e+00    7.158603e-01    1.565081e+00
    8.164910e-01    2.872222e+01    1.111646e+01    6.976233e+07    2.070699e-08    1.148939e-10    2.040242e-08    3.453495e-09   -2.830000e+00    7.158603e-01    1.557021e+00
    8.220675e-01    3.044108e+01    1.102576e+01    6.966778e+07    2.070637e-08    1.113227e-10    2.039205e-08    3.452623e-09   -2.820000e+00    7.158603e-01    1.548969e+00
    8.276261e-01    3.224680e+01    1.093519e+01    6.956459e+07    2.070581e-08    1.078759e-10    2.038161e-08    3.451755e-09   -2.810000e+00    7.158603e-01    1.540927e+00
    8.331700e-01    3.414030e+01    1.084476e+01    6.945316e+07    2.070530e-08    1.045486e-10    2.037110e-08    3.450892e-09   -2.800000e+00    7.158603e-01    1.532893e+00
    8.387026e-01    3.612228e+01    1.075448e+01    6.933387e+07    2.070485e-08    1.013365e-10    2.036052e-08    3.450033e-09   -2.790000e+00    7.158603e-01    1.524868e+00
    8.442265e-01    3.819303e+01    1.066436e+01    6.920703e+07    2.070445e-08    9.823510e-11    2.034988e-08    3.449177e-09   -2.780000e+00    7.158603e-01    1.516852e+00
    8.497445e-01    4.035270e+01    1.057442e+01    6.907307e+07    2.070410e-08    9.524030e-11    2.033916e-08    3.448327e-09   -2.770000e+00    7.158603e-01    1.508844e+00
    8.552613e-01    4.260111e+01    1.048466e+01    6.893238e+07    2.070379e-08    9.234805e-11    2.032837e-08    3.447479e-09   -2.760000e+00    7.158603e-01    1.500846e+00
    8.607788e-01    4.493777e+01    1.039508e+01    6.878524e+07    2.070352e-08    8.955455e-11    2.031753e-08    3.446636e-09   -2.750000e+00    7.158603e-01    1.492856e+00
    8.663012e-01    4.736203e+01    1.030570e+01    6.863203e+07    2.070331e-08    8.685605e-11    2.030662e-08    3.445796e-09   -2.740000e+00    7.158603e-01    1.484874e+00
    8.718307e-01    4.987295e+01    1.021653e+01    6.847305e+07    2.070312e-08    8.424900e-11    2.029565e-08    3.444961e-09   -2.730000e+00    7.158603e-01    1.476902e+00
    8.773713e-01    5.246945e+01    1.012756e+01    6.830863e+07    2.070298e-08    8.173005e-11    2.028463e-08    3.444129e-09   -2.720000e+00    7.158603e-01    1.468938e+00
    8.829249e-01    5.515020e+01    1.003882e+01    6.813902e+07    2.070287e-08    7.929580e-11    2.027354e-08    3.443301e-09   -2.710000e+00    7.158603e-01    1.460982e+00
    8.884962e-01    5.791379e+01    9.950290e+00    6.796457e+07    2.070279e-08    7.694320e-11    2.026239e-08    3.442476e-09   -2.700000e+00    7.158603e-01    1.453036e+00
    8.940869e-01    6.075860e+01    9.862000e+00    6.778552e+07    2.070275e-08    7.466920e-11    2.025118e-08    3.441654e-09   -2.690000e+00    7.158603e-01    1.445098e+00
    8.996997e-01    6.368292e+01    9.773945e+00    6.760208e+07    2.070273e-08    7.247085e-11    2.023993e-08    3.440836e-09   -2.680000e+00    7.158603e-01    1.437168e+00
    9.053378e-01    6.668499e+01    9.686130e+00    6.741451e+07    2.070274e-08    7.034540e-11    2.022861e-08    3.440021e-09   -2.670000e+00    7.158603e-01    1.429247e+00
    9.110044e-01    6.976296e+01    9.598560e+00    6.722305e+07    2.070277e-08    6.829015e-11    2.021725e-08    3.439209e-09   -2.660000e+00    7.158603e-01    1.421335e+00
    9.167002e-01    7.291484e+01    9.511245e+00    6.702782e+07    2.070283e-08    6.630250e-11    2.020582e-08    3.438399e-09   -2.650000e+00    7.158603e-01    1.413431e+00
    9.224294e-01    7.613884e+01    9.424185e+00    6.682911e+07    2.070291e-08    6.437995e-11    2.019435e-08    3.437592e-09   -2.640000e+00    7.158603e-01    1.405536e+00
    9.281935e-01    7.943294e+01    9.337385e+00    6.662701e+07    2.070302e-08    6.252020e-11    2.018282e-08    3.436789e-09   -2.630000e+00    7.158603e-01    1.397649e+00
    9.339952e-01    8.279523e+01    9.250845e+00    6.642171e+07    2.070314e-08    6.072095e-11    2.017125e-08    3.435988e-09   -2.620000e+00    7.158603e-01    1.389771e+00
    9.398363e-01    8.622388e+01    9.164580e+00    6.621340e+07    2.070328e-08    5.897995e-11    2.015961e-08    3.435189e-09   -2.610000e+00    7.158603e-01    1.381901e+00
    9.457190e-01    8.971689e+01    9.078585e+00    6.600215e+07    2.070343e-08    5.729510e-11    2.014794e-08    3.434393e-09   -2.600000e+00    7.158603e-01    1.374040e+00
    9.516456e-01    9.327263e+01    8.992865e+00    6.578815e+07    2.070360e-08    5.566440e-11    2.013621e-08    3.433598e-09   -2.590000e+00    7.158603e-01    1.366187e+00
    9.576179e-01    9.688923e+01    8.907425e+00    6.557147e+07    2.070378e-08    5.408590e-11    2.012444e-08    3.432806e-09   -2.580000e+00    7.158603e-01    1.358343e+00
    9.636380e-01    1.005651e+02    8.822265e+00    6.535225e+07    2.070397e-08    5.255770e-11    2.011261e-08    3.432016e-09   -2.570000e+00    7.158603e-01    1.350507e+00
    9.697072e-01    1.042986e+02    8.737395e+00    6.513056e+07    2.070418e-08    5.107805e-11    2.010073e-08    3.431227e-09   -2.560000e+00    7.158603e-01    1.342679e+00
    9.758281e-01    1.080883e+02    8.652815e+00    6.490654e+07    2.070439e-08    4.964515e-11    2.008881e-08    3.430440e-09   -2.550000e+00    7.158603e-01    1.334860e+00
    9.820022e-01    1.119327e+02    8.568525e+00    6.468023e+07    2.070461e-08    4.825738e-11    2.007684e-08    3.429655e-09   -2.540000e+00    7.158603e-01    1.327049e+00
    9.882315e-01    1.158306e+02    8.484530e+00    6.445175e+07    2.070484e-08    4.691313e-11    2.006482e-08    3.428871e-09   -2.530000e+00    7.158603e-01    1.319247e+00
    9.945178e-01    1.197806e+02    8.400830e+00    6.422117e+07    2.070507e-08    4.561088e-11    2.005275e-08    3.428088e-09   -2.520000e+00    7.158603e-01    1.311452e+00
    1.000862e+00    1.237817e+02    8.317435e+00    6.398851e+07    2.070531e-08    4.434914e-11    2.004064e-08    3.427306e-09   -2.510000e+00    7.158603e-01    1.303667e+00
    1.007267e+00    1.278330e+02    8.234340e+00    6.375391e+07    2.070555e-08    4.312650e-11    2.002848e-08    3.426526e-09   -2.500000e+00    7.158603e-01    1.295889e+00
    1.013734e+00    1.319332e+02    8.151550e+00    6.351735e+07    2.070579e-08    4.194157e-11    2.001627e-08    3.425747e-09   -2.490000e+00    7.158603e-01    1.288120e+00
    1.020264e+00    1.360818e+02    8.069070e+00    6.327893e+07    2.070603e-08    4.079307e-11    2.000401e-08    3.424968e-09   -2.480000e+00    7.158603e-01    1.280359e+00
    1.026859e+00    1.402779e+02    7.986900e+00    6.303868e+07    2.070628e-08    3.967971e-11    1.999171e-08    3.424189e-09   -2.470000e+00    7.158603e-01    1.272606e+00
    1.033520e+00    1.445209e+02    7.905045e+00    6.279664e+07    2.070652e-08    3.860028e-11    1.997937e-08    3.423411e-09   -2.460000e+00    7.158603e-01    1.264861e+00
    1.040251e+00    1.488102e+02    7.823500e+00    6.255288e+07    2.070676e-08    3.755363e-11    1.996697e-08    3.422634e-09   -2.450000e+00    7.158603e-01    1.257125e+00
    1.047052e+00    1.531453e+02    7.742275e+00    6.230743e+07    2.070700e-08    3.653862e-11    1.995452e-08    3.421857e-09   -2.440000e+00    7.158603e-01    1.249396e+00
    1.053924e+00    1.575261e+02    7.661370e+00    6.206031e+07    2.070724e-08    3.555417e-11    1.994204e-08    3.421080e-09   -2.430000e+00    7.158603e-01    1.241676e+00
    1.060870e+00    1.619520e+02    7.580785e+00    6.181157e+07    2.070746e-08    3.459924e-11    1.992950e-08    3.420303e-09   -2.420000e+00    7.158603e-01    1.233964e+00
    1.067891e+00    1.664228e+02    7.500525e+00    6.156119e+07    2.070769e-08    3.367284e-11    1.991691e-08    3.419525e-09   -2.410000e+00    7.158603e-01    1.226261e+00
    1.074989e+00    1.709386e+02    7.420590e+00    6.130930e+07    2.070790e-08    3.277398e-11    1.990427e-08    3.418748e-09   -2.400000e+00    7.158603e-01    1.218565e+00
    1.082164e+00    1.754991e+02    7.340985e+00    6.105584e+07    2.070811e-08    3.190175e-11    1.989160e-08    3.417970e-09   -2.390000e+00    7.158603e-01    1.210877e+00
    1.089420e+00    1.801044e+02    7.261710e+00    6.080086e+07    2.070831e-08    3.105526e-11    1.987887e-08    3.417191e-09   -2.380000e+00    7.158603e-01    1.203198e+00
    1.096757e+00    1.847545e+02    7.182765e+00    6.054439e+07    2.070849e-08    3.023363e-11    1.986609e-08    3.416412e-09   -2.370000e+00    7.158603e-01    1.195527e+00
    1.104178e+00    1.894498e+02    7.104155e+00    6.028644e+07    2.070867e-08    2.943606e-11    1.985327e-08    3.415631e-09   -2.360000e+00    7.158603e-01    1.187863e+00
    1.111686e+00    1.941903e+02    7.025880e+00    6.002708e+07    2.070884e-08    2.866174e-11    1.984039e-08    3.414850e-09   -2.350000e+00    7.158603e-01    1.180208e+00
    1.119278e+00    1.989762e+02    6.947945e+00    5.976621e+07    2.070899e-08    2.790989e-11    1.982747e-08    3.414068e-09   -2.340000e+00    7.158603e-01    1.172561e+00
    1.126961e+00    2.038081e+02    6.870350e+00    5.950396e+07    2.070914e-08    2.717977e-11    1.981450e-08    3.413284e-09   -2.330000e+00    7.158603e-01    1.164921e+00
    1.134734e+00    2.086861e+02    6.793095e+00    5.924030e+07    2.070926e-08    2.647070e-11    1.980148e-08    3.412499e-09   -2.320000e+00    7.158603e-01    1.157290e+00
    1.142600e+00    2.136109e+02    6.716180e+00    5.897526e+07    2.070938e-08    2.578195e-11    1.978840e-08    3.411712e-09   -2.310000e+00    7.158603e-01    1.149667e+00
    1.150561e+00    2.185829e+02    6.639615e+00    5.870885e+07    2.070947e-08    2.511289e-11    1.977528e-08    3.410924e-09   -2.300000e+00    7.158603e-01    1.142051e+00
    1.158618e+00    2.236027e+02    6.563395e+00    5.844107e+07    2.070955e-08    2.446287e-11    1.976210e-08    3.410135e-09   -2.290000e+00    7.158603e-01    1.134444e+00
    1.166773e+00    2.286708e+02    6.487525e+00    5.817194e+07    2.070962e-08    2.383127e-11    1.974888e-08    3.409343e-09   -2.280000e+00    7.158603e-01    1.126844e+00
    1.175028e+00    2.337878e+02    6.412010e+00    5.790146e+07    2.070966e-08    2.321749e-11    1.973560e-08    3.408549e-09   -2.270000e+00    7.158603e-01    1.119253e+00
    1.183386e+00    2.389544e+02    6.336840e+00    5.762964e+07    2.070969e-08    2.262099e-11    1.972227e-08    3.407753e-09   -2.260000e+00    7.158603e-01    1.111669e+00
    1.191848e+00    2.441715e+02    6.262030e+00    5.735650e+07    2.070969e-08    2.204120e-11    1.970889e-08    3.406954e-09   -2.250000e+00    7.158603e-01    1.104093e+00
    1.200418e+00    2.494398e+02    6.187575e+00    5.708207e+07    2.070968e-08    2.147758e-11    1.969545e-08    3.406153e-09   -2.240000e+00    7.158603e-01    1.096525e+00
    1.209096e+00    2.547600e+02    6.113475e+00    5.680631e+07    2.070964e-08    2.092964e-11    1.968196e-08    3.405350e-09   -2.230000e+00    7.158603e-01    1.088965e+00
    1.217885e+00    2.601332e+02    6.039740e+00    5.652928e+07    2.070958e-08    2.039685e-11    1.966842e-08    3.404543e-09   -2.220000e+00    7.158603e-01    1.081413e+00
