# GF180MCU-D pfet_03v3 gm/ID Processed Lookup Table
# Corner: ff
# Temperature: -40C
# W = 2.0 um
# L = 4.5 um (4500 nm)
# Columns: gm/id [1/V]  gm/gds [V/V]  id/W [A/m]  ft [Hz]  Cgg/W [F/m]  Cgd/W [F/m]  Cgs/W [F/m]  Cdb/W [F/m]  vgs [V]  vth [V]  vdsat [V]
# vdsat = BSIM saturation voltage (|VDS|_sat, positive); use for headroom / saturation / cascode-bias calculations
#           gm/id          gm/gds            id/W              ft           Cgg/W           Cgd/W           Cgs/W           Cdb/W             vgs             vth           vdsat
    5.449923e-01    3.202099e+00    2.043710e+01    1.130053e+08    1.568667e-08    4.168254e-10    1.555577e-08    2.612985e-09   -3.300000e+00    7.168488e-01    1.952227e+00
    5.498317e-01    3.290236e+00    2.032571e+01    1.134341e+08    1.568021e-08    4.026144e-10    1.555435e-08    2.612408e-09   -3.290000e+00    7.168488e-01    1.943732e+00
    5.547375e-01    3.382641e+00    2.021358e+01    1.138601e+08    1.567399e-08    3.888691e-10    1.555268e-08    2.611818e-09   -3.280000e+00    7.168488e-01    1.935245e+00
    5.596943e-01    3.479601e+00    2.010126e+01    1.142828e+08    1.566800e-08    3.755781e-10    1.555076e-08    2.611216e-09   -3.270000e+00    7.168488e-01    1.926769e+00
    5.647077e-01    3.581433e+00    1.998857e+01    1.147022e+08    1.566225e-08    3.627301e-10    1.554860e-08    2.610603e-09   -3.260000e+00    7.168488e-01    1.918302e+00
    5.697777e-01    3.688472e+00    1.987551e+01    1.151179e+08    1.565672e-08    3.503134e-10    1.554622e-08    2.609979e-09   -3.250000e+00    7.168488e-01    1.909844e+00
    5.749042e-01    3.801089e+00    1.976207e+01    1.155299e+08    1.565141e-08    3.383168e-10    1.554360e-08    2.609347e-09   -3.240000e+00    7.168488e-01    1.901396e+00
    5.800867e-01    3.919679e+00    1.964828e+01    1.159379e+08    1.564632e-08    3.267287e-10    1.554076e-08    2.608704e-09   -3.230000e+00    7.168488e-01    1.892958e+00
    5.853252e-01    4.044676e+00    1.953413e+01    1.163415e+08    1.564144e-08    3.155376e-10    1.553770e-08    2.608054e-09   -3.220000e+00    7.168488e-01    1.884529e+00
    5.906194e-01    4.176550e+00    1.941961e+01    1.167405e+08    1.563676e-08    3.047321e-10    1.553444e-08    2.607396e-09   -3.210000e+00    7.168488e-01    1.876109e+00
    5.959686e-01    4.315808e+00    1.930474e+01    1.171346e+08    1.563227e-08    2.943010e-10    1.553099e-08    2.606732e-09   -3.200000e+00    7.168488e-01    1.867699e+00
    6.013719e-01    4.463002e+00    1.918951e+01    1.175233e+08    1.562798e-08    2.842331e-10    1.552734e-08    2.606061e-09   -3.190000e+00    7.168488e-01    1.859299e+00
    6.068286e-01    4.618732e+00    1.907393e+01    1.179065e+08    1.562388e-08    2.745174e-10    1.552349e-08    2.605385e-09   -3.180000e+00    7.168488e-01    1.850908e+00
    6.123378e-01    4.783650e+00    1.895802e+01    1.182835e+08    1.561995e-08    2.651428e-10    1.551948e-08    2.604703e-09   -3.170000e+00    7.168488e-01    1.842526e+00
    6.178977e-01    4.958456e+00    1.884176e+01    1.186540e+08    1.561621e-08    2.560987e-10    1.551528e-08    2.604018e-09   -3.160000e+00    7.168488e-01    1.834154e+00
    6.235071e-01    5.143919e+00    1.872518e+01    1.190176e+08    1.561263e-08    2.473745e-10    1.551092e-08    2.603328e-09   -3.150000e+00    7.168488e-01    1.825791e+00
    6.291646e-01    5.340870e+00    1.860825e+01    1.193738e+08    1.560921e-08    2.389597e-10    1.550639e-08    2.602637e-09   -3.140000e+00    7.168488e-01    1.817437e+00
    6.348679e-01    5.550205e+00    1.849102e+01    1.197220e+08    1.560595e-08    2.308444e-10    1.550170e-08    2.601942e-09   -3.130000e+00    7.168488e-01    1.809093e+00
    6.406145e-01    5.772895e+00    1.837348e+01    1.200616e+08    1.560285e-08    2.230185e-10    1.549686e-08    2.601245e-09   -3.120000e+00    7.168488e-01    1.800758e+00
    6.464029e-01    6.009994e+00    1.825562e+01    1.203922e+08    1.559990e-08    2.154722e-10    1.549188e-08    2.600546e-09   -3.110000e+00    7.168488e-01    1.792432e+00
    6.522298e-01    6.262633e+00    1.813747e+01    1.207130e+08    1.559708e-08    2.081960e-10    1.548675e-08    2.599846e-09   -3.100000e+00    7.168488e-01    1.784116e+00
    6.580925e-01    6.532037e+00    1.801902e+01    1.210235e+08    1.559441e-08    2.011807e-10    1.548148e-08    2.599145e-09   -3.090000e+00    7.168488e-01    1.775809e+00
    6.639878e-01    6.819520e+00    1.790030e+01    1.213229e+08    1.559187e-08    1.944172e-10    1.547608e-08    2.598444e-09   -3.080000e+00    7.168488e-01    1.767511e+00
    6.699122e-01    7.126487e+00    1.778131e+01    1.216105e+08    1.558945e-08    1.878968e-10    1.547056e-08    2.597743e-09   -3.070000e+00    7.168488e-01    1.759222e+00
    6.758622e-01    7.454453e+00    1.766207e+01    1.218857e+08    1.558716e-08    1.816108e-10    1.546490e-08    2.597042e-09   -3.060000e+00    7.168488e-01    1.750942e+00
    6.818341e-01    7.805030e+00    1.754258e+01    1.221478e+08    1.558499e-08    1.755508e-10    1.545913e-08    2.596341e-09   -3.050000e+00    7.168488e-01    1.742672e+00
    6.878238e-01    8.179927e+00    1.742285e+01    1.223961e+08    1.558294e-08    1.697090e-10    1.545325e-08    2.595641e-09   -3.040000e+00    7.168488e-01    1.734411e+00
    6.938274e-01    8.580963e+00    1.730291e+01    1.226296e+08    1.558100e-08    1.640773e-10    1.544725e-08    2.594943e-09   -3.030000e+00    7.168488e-01    1.726159e+00
    6.998406e-01    9.010056e+00    1.718276e+01    1.228480e+08    1.557915e-08    1.586482e-10    1.544115e-08    2.594245e-09   -3.020000e+00    7.168488e-01    1.717916e+00
    7.058595e-01    9.469220e+00    1.706241e+01    1.230504e+08    1.557742e-08    1.534144e-10    1.543494e-08    2.593550e-09   -3.010000e+00    7.168488e-01    1.709682e+00
    7.118792e-01    9.960564e+00    1.694188e+01    1.232362e+08    1.557578e-08    1.483686e-10    1.542864e-08    2.592856e-09   -3.000000e+00    7.168488e-01    1.701457e+00
    7.178959e-01    1.048628e+01    1.682120e+01    1.234047e+08    1.557424e-08    1.435040e-10    1.542223e-08    2.592164e-09   -2.990000e+00    7.168488e-01    1.693241e+00
    7.239056e-01    1.104863e+01    1.670037e+01    1.235554e+08    1.557279e-08    1.388140e-10    1.541574e-08    2.591474e-09   -2.980000e+00    7.168488e-01    1.685034e+00
    7.299048e-01    1.164994e+01    1.657942e+01    1.236879e+08    1.557143e-08    1.342920e-10    1.540915e-08    2.590787e-09   -2.970000e+00    7.168488e-01    1.676837e+00
    7.358894e-01    1.229259e+01    1.645835e+01    1.238016e+08    1.557014e-08    1.299317e-10    1.540248e-08    2.590102e-09   -2.960000e+00    7.168488e-01    1.668648e+00
    7.418565e-01    1.297898e+01    1.633719e+01    1.238963e+08    1.556895e-08    1.257274e-10    1.539572e-08    2.589420e-09   -2.950000e+00    7.168488e-01    1.660468e+00
    7.478025e-01    1.371151e+01    1.621596e+01    1.239715e+08    1.556782e-08    1.216731e-10    1.538887e-08    2.588740e-09   -2.940000e+00    7.168488e-01    1.652297e+00
    7.537253e-01    1.449258e+01    1.609467e+01    1.240272e+08    1.556677e-08    1.177631e-10    1.538196e-08    2.588063e-09   -2.930000e+00    7.168488e-01    1.644135e+00
    7.596227e-01    1.532456e+01    1.597335e+01    1.240631e+08    1.556579e-08    1.139921e-10    1.537497e-08    2.587389e-09   -2.920000e+00    7.168488e-01    1.635982e+00
    7.654931e-01    1.620972e+01    1.585201e+01    1.240794e+08    1.556489e-08    1.103549e-10    1.536789e-08    2.586718e-09   -2.910000e+00    7.168488e-01    1.627838e+00
    7.713354e-01    1.715028e+01    1.573066e+01    1.240761e+08    1.556404e-08    1.068464e-10    1.536076e-08    2.586050e-09   -2.900000e+00    7.168488e-01    1.619703e+00
    7.771488e-01    1.814832e+01    1.560934e+01    1.240533e+08    1.556326e-08    1.034619e-10    1.535355e-08    2.585385e-09   -2.890000e+00    7.168488e-01    1.611577e+00
    7.829333e-01    1.920578e+01    1.548805e+01    1.240113e+08    1.556253e-08    1.001966e-10    1.534627e-08    2.584723e-09   -2.880000e+00    7.168488e-01    1.603459e+00
    7.886889e-01    2.032445e+01    1.536682e+01    1.239504e+08    1.556187e-08    9.704610e-11    1.533893e-08    2.584064e-09   -2.870000e+00    7.168488e-01    1.595351e+00
    7.944163e-01    2.150590e+01    1.524567e+01    1.238711e+08    1.556126e-08    9.400605e-11    1.533152e-08    2.583408e-09   -2.860000e+00    7.168488e-01    1.587251e+00
    8.001170e-01    2.275156e+01    1.512460e+01    1.237738e+08    1.556070e-08    9.107230e-11    1.532405e-08    2.582756e-09   -2.850000e+00    7.168488e-01    1.579160e+00
    8.057928e-01    2.406254e+01    1.500364e+01    1.236589e+08    1.556019e-08    8.824080e-11    1.531653e-08    2.582106e-09   -2.840000e+00    7.168488e-01    1.571078e+00
    8.114449e-01    2.543980e+01    1.488281e+01    1.235271e+08    1.555973e-08    8.550780e-11    1.530895e-08    2.581459e-09   -2.830000e+00    7.168488e-01    1.563004e+00
    8.170760e-01    2.688400e+01    1.476211e+01    1.233789e+08    1.555931e-08    8.286950e-11    1.530131e-08    2.580815e-09   -2.820000e+00    7.168488e-01    1.554939e+00
    8.226885e-01    2.839558e+01    1.464158e+01    1.232150e+08    1.555894e-08    8.032240e-11    1.529361e-08    2.580176e-09   -2.810000e+00    7.168488e-01    1.546883e+00
    8.282857e-01    2.997472e+01    1.452121e+01    1.230361e+08    1.555860e-08    7.786305e-11    1.528586e-08    2.579538e-09   -2.800000e+00    7.168488e-01    1.538836e+00
    8.338692e-01    3.162134e+01    1.440103e+01    1.228427e+08    1.555831e-08    7.548815e-11    1.527806e-08    2.578904e-09   -2.790000e+00    7.168488e-01    1.530797e+00
    8.394431e-01    3.333517e+01    1.428105e+01    1.226355e+08    1.555805e-08    7.319455e-11    1.527020e-08    2.578272e-09   -2.780000e+00    7.168488e-01    1.522767e+00
    8.450100e-01    3.511566e+01    1.416127e+01    1.224152e+08    1.555783e-08    7.097925e-11    1.526231e-08    2.577644e-09   -2.770000e+00    7.168488e-01    1.514746e+00
    8.505731e-01    3.696209e+01    1.404172e+01    1.221823e+08    1.555764e-08    6.883925e-11    1.525435e-08    2.577018e-09   -2.760000e+00    7.168488e-01    1.506733e+00
    8.561362e-01    3.887354e+01    1.392240e+01    1.219377e+08    1.555749e-08    6.677180e-11    1.524636e-08    2.576395e-09   -2.750000e+00    7.168488e-01    1.498729e+00
    8.617019e-01    4.084889e+01    1.380334e+01    1.216817e+08    1.555736e-08    6.477415e-11    1.523831e-08    2.575775e-09   -2.740000e+00    7.168488e-01    1.490733e+00
    8.672734e-01    4.288689e+01    1.368452e+01    1.214151e+08    1.555726e-08    6.284375e-11    1.523022e-08    2.575158e-09   -2.730000e+00    7.168488e-01    1.482746e+00
    8.728543e-01    4.498618e+01    1.356597e+01    1.211383e+08    1.555719e-08    6.097805e-11    1.522208e-08    2.574543e-09   -2.720000e+00    7.168488e-01    1.474767e+00
    8.784469e-01    4.714524e+01    1.344770e+01    1.208520e+08    1.555714e-08    5.917475e-11    1.521390e-08    2.573930e-09   -2.710000e+00    7.168488e-01    1.466797e+00
    8.840545e-01    4.936250e+01    1.332972e+01    1.205565e+08    1.555712e-08    5.743145e-11    1.520568e-08    2.573321e-09   -2.700000e+00    7.168488e-01    1.458836e+00
    8.896808e-01    5.163635e+01    1.321202e+01    1.202525e+08    1.555712e-08    5.574595e-11    1.519742e-08    2.572713e-09   -2.690000e+00    7.168488e-01    1.450883e+00
    8.953277e-01    5.396507e+01    1.309463e+01    1.199403e+08    1.555714e-08    5.411620e-11    1.518912e-08    2.572108e-09   -2.680000e+00    7.168488e-01    1.442939e+00
    9.009986e-01    5.634702e+01    1.297754e+01    1.196205e+08    1.555719e-08    5.254005e-11    1.518077e-08    2.571505e-09   -2.670000e+00    7.168488e-01    1.435002e+00
    9.066950e-01    5.878040e+01    1.286078e+01    1.192932e+08    1.555725e-08    5.101560e-11    1.517238e-08    2.570904e-09   -2.660000e+00    7.168488e-01    1.427075e+00
    9.124211e-01    6.126363e+01    1.274433e+01    1.189591e+08    1.555733e-08    4.954099e-11    1.516396e-08    2.570306e-09   -2.650000e+00    7.168488e-01    1.419156e+00
    9.181788e-01    6.379497e+01    1.262821e+01    1.186183e+08    1.555742e-08    4.811435e-11    1.515549e-08    2.569709e-09   -2.640000e+00    7.168488e-01    1.411245e+00
    9.239700e-01    6.637282e+01    1.251243e+01    1.182712e+08    1.555753e-08    4.673396e-11    1.514699e-08    2.569114e-09   -2.630000e+00    7.168488e-01    1.403343e+00
    9.297975e-01    6.899559e+01    1.239699e+01    1.179182e+08    1.555765e-08    4.539816e-11    1.513845e-08    2.568521e-09   -2.620000e+00    7.168488e-01    1.395448e+00
    9.356630e-01    7.166181e+01    1.228190e+01    1.175594e+08    1.555779e-08    4.410532e-11    1.512987e-08    2.567930e-09   -2.610000e+00    7.168488e-01    1.387563e+00
    9.415694e-01    7.437002e+01    1.216716e+01    1.171952e+08    1.555794e-08    4.285390e-11    1.512124e-08    2.567341e-09   -2.600000e+00    7.168488e-01    1.379685e+00
    9.475187e-01    7.711885e+01    1.205278e+01    1.168258e+08    1.555809e-08    4.164242e-11    1.511260e-08    2.566753e-09   -2.590000e+00    7.168488e-01    1.371816e+00
    9.535127e-01    7.990706e+01    1.193876e+01    1.164514e+08    1.555826e-08    4.046945e-11    1.510390e-08    2.566166e-09   -2.580000e+00    7.168488e-01    1.363956e+00
    9.595534e-01    8.273346e+01    1.182511e+01    1.160722e+08    1.555843e-08    3.933362e-11    1.509518e-08    2.565581e-09   -2.570000e+00    7.168488e-01    1.356103e+00
    9.656433e-01    8.559691e+01    1.171182e+01    1.156885e+08    1.555862e-08    3.823360e-11    1.508641e-08    2.564997e-09   -2.560000e+00    7.168488e-01    1.348259e+00
    9.717836e-01    8.849643e+01    1.159891e+01    1.153004e+08    1.555881e-08    3.716813e-11    1.507761e-08    2.564414e-09   -2.550000e+00    7.168488e-01    1.340423e+00
    9.779761e-01    9.143105e+01    1.148639e+01    1.149080e+08    1.555900e-08    3.613599e-11    1.506877e-08    2.563833e-09   -2.540000e+00    7.168488e-01    1.332595e+00
    9.842231e-01    9.439999e+01    1.137425e+01    1.145115e+08    1.555920e-08    3.513601e-11    1.505991e-08    2.563252e-09   -2.530000e+00    7.168488e-01    1.324776e+00
    9.905265e-01    9.740250e+01    1.126250e+01    1.141111e+08    1.555940e-08    3.416705e-11    1.505100e-08    2.562672e-09   -2.520000e+00    7.168488e-01    1.316964e+00
    9.968873e-01    1.004379e+02    1.115114e+01    1.137068e+08    1.555961e-08    3.322804e-11    1.504206e-08    2.562094e-09   -2.510000e+00    7.168488e-01    1.309161e+00
    1.003307e+00    1.035056e+02    1.104017e+01    1.132988e+08    1.555982e-08    3.231794e-11    1.503309e-08    2.561515e-09   -2.500000e+00    7.168488e-01    1.301366e+00
    1.009789e+00    1.066051e+02    1.092960e+01    1.128872e+08    1.556003e-08    3.143572e-11    1.502408e-08    2.560938e-09   -2.490000e+00    7.168488e-01    1.293579e+00
    1.016334e+00    1.097360e+02    1.081944e+01    1.124722e+08    1.556024e-08    3.058045e-11    1.501503e-08    2.560361e-09   -2.480000e+00    7.168488e-01    1.285800e+00
    1.022944e+00    1.128980e+02    1.070968e+01    1.120537e+08    1.556045e-08    2.975118e-11    1.500594e-08    2.559784e-09   -2.470000e+00    7.168488e-01    1.278030e+00
    1.029620e+00    1.160909e+02    1.060033e+01    1.116319e+08    1.556066e-08    2.894703e-11    1.499683e-08    2.559208e-09   -2.460000e+00    7.168488e-01    1.270267e+00
    1.036363e+00    1.193143e+02    1.049140e+01    1.112069e+08    1.556087e-08    2.816713e-11    1.498768e-08    2.558632e-09   -2.450000e+00    7.168488e-01    1.262513e+00
    1.043177e+00    1.225683e+02    1.038288e+01    1.107787e+08    1.556108e-08    2.741066e-11    1.497849e-08    2.558055e-09   -2.440000e+00    7.168488e-01    1.254766e+00
    1.050062e+00    1.258528e+02    1.027477e+01    1.103474e+08    1.556128e-08    2.667682e-11    1.496927e-08    2.557479e-09   -2.430000e+00    7.168488e-01    1.247028e+00
    1.057020e+00    1.291676e+02    1.016709e+01    1.099130e+08    1.556148e-08    2.596484e-11    1.496002e-08    2.556904e-09   -2.420000e+00    7.168488e-01    1.239297e+00
    1.064052e+00    1.325129e+02    1.005984e+01    1.094757e+08    1.556167e-08    2.527400e-11    1.495073e-08    2.556328e-09   -2.410000e+00    7.168488e-01    1.231575e+00
    1.071161e+00    1.358889e+02    9.953010e+00    1.090355e+08    1.556186e-08    2.460357e-11    1.494140e-08    2.555752e-09   -2.400000e+00    7.168488e-01    1.223860e+00
    1.078348e+00    1.392957e+02    9.846610e+00    1.085924e+08    1.556204e-08    2.395288e-11    1.493203e-08    2.555175e-09   -2.390000e+00    7.168488e-01    1.216154e+00
    1.085615e+00    1.427335e+02    9.740650e+00    1.081465e+08    1.556222e-08    2.332126e-11    1.492264e-08    2.554598e-09   -2.380000e+00    7.168488e-01    1.208455e+00
    1.092964e+00    1.462025e+02    9.635120e+00    1.076978e+08    1.556238e-08    2.270809e-11    1.491321e-08    2.554020e-09   -2.370000e+00    7.168488e-01    1.200765e+00
    1.100396e+00    1.497031e+02    9.530030e+00    1.072464e+08    1.556255e-08    2.211276e-11    1.490374e-08    2.553442e-09   -2.360000e+00    7.168488e-01    1.193082e+00
    1.107912e+00    1.532356e+02    9.425385e+00    1.067922e+08    1.556270e-08    2.153466e-11    1.489423e-08    2.552863e-09   -2.350000e+00    7.168488e-01    1.185407e+00
    1.115515e+00    1.568003e+02    9.321185e+00    1.063354e+08    1.556285e-08    2.097325e-11    1.488469e-08    2.552283e-09   -2.340000e+00    7.168488e-01    1.177740e+00
    1.123208e+00    1.603979e+02    9.217430e+00    1.058760e+08    1.556298e-08    2.042798e-11    1.487511e-08    2.551702e-09   -2.330000e+00    7.168488e-01    1.170081e+00
    1.130991e+00    1.640286e+02    9.114120e+00    1.054139e+08    1.556310e-08    1.989831e-11    1.486550e-08    2.551120e-09   -2.320000e+00    7.168488e-01    1.162430e+00
    1.138866e+00    1.676929e+02    9.011270e+00    1.049493e+08    1.556322e-08    1.938373e-11    1.485584e-08    2.550538e-09   -2.310000e+00    7.168488e-01    1.154786e+00
    1.146836e+00    1.713916e+02    8.908870e+00    1.044821e+08    1.556332e-08    1.888378e-11    1.484615e-08    2.549953e-09   -2.300000e+00    7.168488e-01    1.147151e+00
    1.154902e+00    1.751250e+02    8.806930e+00    1.040125e+08    1.556341e-08    1.839797e-11    1.483643e-08    2.549367e-09   -2.290000e+00    7.168488e-01    1.139523e+00
    1.163066e+00    1.788938e+02    8.705450e+00    1.035402e+08    1.556348e-08    1.792584e-11    1.482666e-08    2.548781e-09   -2.280000e+00    7.168488e-01    1.131903e+00
    1.171332e+00    1.826987e+02    8.604430e+00    1.030656e+08    1.556355e-08    1.746697e-11    1.481685e-08    2.548193e-09   -2.270000e+00    7.168488e-01    1.124290e+00
    1.179699e+00    1.865402e+02    8.503875e+00    1.025884e+08    1.556359e-08    1.702092e-11    1.480701e-08    2.547603e-09   -2.260000e+00    7.168488e-01    1.116686e+00
    1.188170e+00    1.904189e+02    8.403790e+00    1.021088e+08    1.556362e-08    1.658729e-11    1.479713e-08    2.547011e-09   -2.250000e+00    7.168488e-01    1.109089e+00
    1.196748e+00    1.943359e+02    8.304175e+00    1.016267e+08    1.556364e-08    1.616570e-11    1.478721e-08    2.546417e-09   -2.240000e+00    7.168488e-01    1.101500e+00
    1.205436e+00    1.982916e+02    8.205030e+00    1.011423e+08    1.556365e-08    1.575575e-11    1.477724e-08    2.545822e-09   -2.230000e+00    7.168488e-01    1.093918e+00
    1.214234e+00    2.022869e+02    8.106360e+00    1.006555e+08    1.556364e-08    1.535709e-11    1.476724e-08    2.545224e-09   -2.220000e+00    7.168488e-01    1.086345e+00
