# GF180MCU-D pfet_03v3 gm/ID Processed Lookup Table
# Corner: ff
# Temperature: -40C
# W = 2.0 um
# L = 3.5 um (3500 nm)
# Columns: gm/id [1/V]  gm/gds [V/V]  id/W [A/m]  ft [Hz]  Cgg/W [F/m]  Cgd/W [F/m]  Cgs/W [F/m]  Cdb/W [F/m]  vgs [V]  vth [V]  vdsat [V]
# vdsat = BSIM saturation voltage (|VDS|_sat, positive); use for headroom / saturation / cascode-bias calculations
#           gm/id          gm/gds            id/W              ft           Cgg/W           Cgd/W           Cgs/W           Cdb/W             vgs             vth           vdsat
    5.395964e-01    3.088841e+00    2.631223e+01    1.849241e+08    1.221950e-08    3.225195e-10    1.209389e-08    2.024302e-09   -3.300000e+00    7.179720e-01    1.958874e+00
    5.443792e-01    3.171378e+00    2.617025e+01    1.856314e+08    1.221457e-08    3.115813e-10    1.209287e-08    2.023865e-09   -3.290000e+00    7.179720e-01    1.950374e+00
    5.492281e-01    3.257792e+00    2.602730e+01    1.863340e+08    1.220984e-08    3.009999e-10    1.209165e-08    2.023418e-09   -3.280000e+00    7.179720e-01    1.941884e+00
    5.541284e-01    3.348341e+00    2.588411e+01    1.870321e+08    1.220528e-08    2.907668e-10    1.209025e-08    2.022962e-09   -3.270000e+00    7.179720e-01    1.933403e+00
    5.590852e-01    3.443298e+00    2.574044e+01    1.877251e+08    1.220089e-08    2.808733e-10    1.208866e-08    2.022497e-09   -3.260000e+00    7.179720e-01    1.924932e+00
    5.640985e-01    3.542963e+00    2.559629e+01    1.884126e+08    1.219669e-08    2.713105e-10    1.208689e-08    2.022024e-09   -3.250000e+00    7.179720e-01    1.916470e+00
    5.691684e-01    3.647658e+00    2.545166e+01    1.890945e+08    1.219265e-08    2.620696e-10    1.208494e-08    2.021543e-09   -3.240000e+00    7.179720e-01    1.908017e+00
    5.742950e-01    3.757732e+00    2.530656e+01    1.897703e+08    1.218878e-08    2.531420e-10    1.208283e-08    2.021056e-09   -3.230000e+00    7.179720e-01    1.899574e+00
    5.794779e-01    3.873563e+00    2.516100e+01    1.904395e+08    1.218506e-08    2.445188e-10    1.208055e-08    2.020561e-09   -3.220000e+00    7.179720e-01    1.891141e+00
    5.847171e-01    3.995560e+00    2.501496e+01    1.911019e+08    1.218150e-08    2.361913e-10    1.207810e-08    2.020061e-09   -3.210000e+00    7.179720e-01    1.882716e+00
    5.900120e-01    4.124164e+00    2.486846e+01    1.917568e+08    1.217809e-08    2.281509e-10    1.207552e-08    2.019555e-09   -3.200000e+00    7.179720e-01    1.874301e+00
    5.953622e-01    4.259855e+00    2.472151e+01    1.924038e+08    1.217483e-08    2.203891e-10    1.207277e-08    2.019045e-09   -3.190000e+00    7.179720e-01    1.865895e+00
    6.007667e-01    4.403151e+00    2.457410e+01    1.930422e+08    1.217171e-08    2.128973e-10    1.206988e-08    2.018530e-09   -3.180000e+00    7.179720e-01    1.857499e+00
    6.062247e-01    4.554612e+00    2.442624e+01    1.936714e+08    1.216872e-08    2.056673e-10    1.206686e-08    2.018011e-09   -3.170000e+00    7.179720e-01    1.849112e+00
    6.117353e-01    4.714848e+00    2.427795e+01    1.942909e+08    1.216587e-08    1.986909e-10    1.206370e-08    2.017488e-09   -3.160000e+00    7.179720e-01    1.840734e+00
    6.172970e-01    4.884515e+00    2.412921e+01    1.948999e+08    1.216315e-08    1.919599e-10    1.206040e-08    2.016963e-09   -3.150000e+00    7.179720e-01    1.832365e+00
    6.229086e-01    5.064323e+00    2.398005e+01    1.954976e+08    1.216055e-08    1.854665e-10    1.205699e-08    2.016435e-09   -3.140000e+00    7.179720e-01    1.824005e+00
    6.285683e-01    5.255039e+00    2.383047e+01    1.960832e+08    1.215808e-08    1.792028e-10    1.205344e-08    2.015904e-09   -3.130000e+00    7.179720e-01    1.815655e+00
    6.342739e-01    5.457489e+00    2.368047e+01    1.966558e+08    1.215572e-08    1.731613e-10    1.204978e-08    2.015373e-09   -3.120000e+00    7.179720e-01    1.807314e+00
    6.400238e-01    5.672569e+00    2.353007e+01    1.972147e+08    1.215347e-08    1.673346e-10    1.204601e-08    2.014839e-09   -3.110000e+00    7.179720e-01    1.798982e+00
    6.458150e-01    5.901235e+00    2.337928e+01    1.977586e+08    1.215133e-08    1.617153e-10    1.204212e-08    2.014305e-09   -3.100000e+00    7.179720e-01    1.790659e+00
    6.516454e-01    6.144520e+00    2.322810e+01    1.982868e+08    1.214930e-08    1.562964e-10    1.203814e-08    2.013769e-09   -3.090000e+00    7.179720e-01    1.782345e+00
    6.575118e-01    6.403529e+00    2.307655e+01    1.987981e+08    1.214737e-08    1.510710e-10    1.203404e-08    2.013233e-09   -3.080000e+00    7.179720e-01    1.774040e+00
    6.634111e-01    6.679445e+00    2.292465e+01    1.992915e+08    1.214554e-08    1.460322e-10    1.202985e-08    2.012697e-09   -3.070000e+00    7.179720e-01    1.765745e+00
    6.693405e-01    6.973528e+00    2.277239e+01    1.997657e+08    1.214381e-08    1.411736e-10    1.202557e-08    2.012161e-09   -3.060000e+00    7.179720e-01    1.757458e+00
    6.752955e-01    7.287117e+00    2.261980e+01    2.002197e+08    1.214216e-08    1.364889e-10    1.202119e-08    2.011625e-09   -3.050000e+00    7.179720e-01    1.749181e+00
    6.812730e-01    7.621632e+00    2.246689e+01    2.006523e+08    1.214060e-08    1.319719e-10    1.201672e-08    2.011090e-09   -3.040000e+00    7.179720e-01    1.740912e+00
    6.872690e-01    7.978573e+00    2.231368e+01    2.010622e+08    1.213913e-08    1.276165e-10    1.201217e-08    2.010556e-09   -3.030000e+00    7.179720e-01    1.732652e+00
    6.932792e-01    8.359512e+00    2.216019e+01    2.014484e+08    1.213774e-08    1.234168e-10    1.200753e-08    2.010022e-09   -3.020000e+00    7.179720e-01    1.724402e+00
    6.992999e-01    8.766102e+00    2.200643e+01    2.018098e+08    1.213643e-08    1.193674e-10    1.200281e-08    2.009489e-09   -3.010000e+00    7.179720e-01    1.716160e+00
    7.053266e-01    9.200048e+00    2.185241e+01    2.021451e+08    1.213519e-08    1.154627e-10    1.199802e-08    2.008958e-09   -3.000000e+00    7.179720e-01    1.707927e+00
    7.113554e-01    9.663129e+00    2.169817e+01    2.024534e+08    1.213402e-08    1.116975e-10    1.199315e-08    2.008428e-09   -2.990000e+00    7.179720e-01    1.699704e+00
    7.173821e-01    1.015715e+01    2.154371e+01    2.027336e+08    1.213293e-08    1.080666e-10    1.198821e-08    2.007899e-09   -2.980000e+00    7.179720e-01    1.691489e+00
    7.234027e-01    1.068398e+01    2.138908e+01    2.029848e+08    1.213190e-08    1.045651e-10    1.198320e-08    2.007373e-09   -2.970000e+00    7.179720e-01    1.683283e+00
    7.294138e-01    1.124549e+01    2.123427e+01    2.032062e+08    1.213094e-08    1.011882e-10    1.197812e-08    2.006847e-09   -2.960000e+00    7.179720e-01    1.675085e+00
    7.354114e-01    1.184356e+01    2.107931e+01    2.033972e+08    1.213003e-08    9.793130e-11    1.197297e-08    2.006324e-09   -2.950000e+00    7.179720e-01    1.666897e+00
    7.413927e-01    1.248005e+01    2.092424e+01    2.035572e+08    1.212919e-08    9.479005e-11    1.196777e-08    2.005804e-09   -2.940000e+00    7.179720e-01    1.658717e+00
    7.473547e-01    1.315680e+01    2.076906e+01    2.036855e+08    1.212840e-08    9.176000e-11    1.196250e-08    2.005285e-09   -2.930000e+00    7.179720e-01    1.650546e+00
    7.532947e-01    1.387558e+01    2.061380e+01    2.037821e+08    1.212767e-08    8.883715e-11    1.195717e-08    2.004768e-09   -2.920000e+00    7.179720e-01    1.642384e+00
    7.592108e-01    1.463810e+01    2.045850e+01    2.038466e+08    1.212699e-08    8.601740e-11    1.195178e-08    2.004253e-09   -2.910000e+00    7.179720e-01    1.634231e+00
    7.651016e-01    1.544594e+01    2.030316e+01    2.038791e+08    1.212635e-08    8.329695e-11    1.194635e-08    2.003740e-09   -2.900000e+00    7.179720e-01    1.626087e+00
    7.709661e-01    1.630061e+01    2.014783e+01    2.038798e+08    1.212577e-08    8.067205e-11    1.194085e-08    2.003230e-09   -2.890000e+00    7.179720e-01    1.617951e+00
    7.768032e-01    1.720341e+01    1.999251e+01    2.038489e+08    1.212524e-08    7.813920e-11    1.193531e-08    2.002721e-09   -2.880000e+00    7.179720e-01    1.609824e+00
    7.826133e-01    1.815555e+01    1.983723e+01    2.037868e+08    1.212474e-08    7.569485e-11    1.192971e-08    2.002215e-09   -2.870000e+00    7.179720e-01    1.601705e+00
    7.883965e-01    1.915800e+01    1.968202e+01    2.036940e+08    1.212429e-08    7.333580e-11    1.192406e-08    2.001712e-09   -2.860000e+00    7.179720e-01    1.593595e+00
    7.941537e-01    2.021158e+01    1.952690e+01    2.035712e+08    1.212387e-08    7.105875e-11    1.191837e-08    2.001211e-09   -2.850000e+00    7.179720e-01    1.585494e+00
    7.998857e-01    2.131688e+01    1.937188e+01    2.034191e+08    1.212350e-08    6.886070e-11    1.191263e-08    2.000712e-09   -2.840000e+00    7.179720e-01    1.577401e+00
    8.055947e-01    2.247430e+01    1.921700e+01    2.032386e+08    1.212317e-08    6.673870e-11    1.190684e-08    2.000216e-09   -2.830000e+00    7.179720e-01    1.569317e+00
    8.112821e-01    2.368404e+01    1.906227e+01    2.030306e+08    1.212286e-08    6.468985e-11    1.190101e-08    1.999721e-09   -2.820000e+00    7.179720e-01    1.561242e+00
    8.169503e-01    2.494603e+01    1.890770e+01    2.027958e+08    1.212260e-08    6.271150e-11    1.189514e-08    1.999230e-09   -2.810000e+00    7.179720e-01    1.553175e+00
    8.226022e-01    2.626008e+01    1.875334e+01    2.025357e+08    1.212235e-08    6.080090e-11    1.188923e-08    1.998739e-09   -2.800000e+00    7.179720e-01    1.545117e+00
    8.282397e-01    2.762571e+01    1.859918e+01    2.022509e+08    1.212215e-08    5.895565e-11    1.188327e-08    1.998252e-09   -2.790000e+00    7.179720e-01    1.537067e+00
    8.338662e-01    2.904232e+01    1.844525e+01    2.019425e+08    1.212197e-08    5.717320e-11    1.187728e-08    1.997767e-09   -2.780000e+00    7.179720e-01    1.529026e+00
    8.394845e-01    3.050912e+01    1.829157e+01    2.016118e+08    1.212181e-08    5.545125e-11    1.187125e-08    1.997284e-09   -2.770000e+00    7.179720e-01    1.520993e+00
    8.450977e-01    3.202517e+01    1.813815e+01    2.012597e+08    1.212169e-08    5.378760e-11    1.186518e-08    1.996803e-09   -2.760000e+00    7.179720e-01    1.512968e+00
    8.507089e-01    3.358938e+01    1.798500e+01    2.008871e+08    1.212159e-08    5.218005e-11    1.185907e-08    1.996324e-09   -2.750000e+00    7.179720e-01    1.504952e+00
    8.563213e-01    3.520055e+01    1.783215e+01    2.004951e+08    1.212151e-08    5.062655e-11    1.185293e-08    1.995847e-09   -2.740000e+00    7.179720e-01    1.496945e+00
    8.619381e-01    3.685740e+01    1.767960e+01    2.000848e+08    1.212145e-08    4.912503e-11    1.184675e-08    1.995372e-09   -2.730000e+00    7.179720e-01    1.488946e+00
    8.675621e-01    3.855853e+01    1.752738e+01    1.996569e+08    1.212142e-08    4.767363e-11    1.184054e-08    1.994900e-09   -2.720000e+00    7.179720e-01    1.480955e+00
    8.731964e-01    4.030255e+01    1.737549e+01    1.992124e+08    1.212140e-08    4.627050e-11    1.183429e-08    1.994429e-09   -2.710000e+00    7.179720e-01    1.472973e+00
    8.788448e-01    4.208802e+01    1.722394e+01    1.987522e+08    1.212140e-08    4.491386e-11    1.182801e-08    1.993960e-09   -2.700000e+00    7.179720e-01    1.464999e+00
    8.845092e-01    4.391344e+01    1.707275e+01    1.982771e+08    1.212142e-08    4.360199e-11    1.182170e-08    1.993492e-09   -2.690000e+00    7.179720e-01    1.457033e+00
    8.901930e-01    4.577733e+01    1.692193e+01    1.977877e+08    1.212146e-08    4.233327e-11    1.181536e-08    1.993027e-09   -2.680000e+00    7.179720e-01    1.449076e+00
    8.958994e-01    4.767829e+01    1.677147e+01    1.972850e+08    1.212151e-08    4.110612e-11    1.180898e-08    1.992563e-09   -2.670000e+00    7.179720e-01    1.441126e+00
    9.016305e-01    4.961485e+01    1.662142e+01    1.967695e+08    1.212157e-08    3.991902e-11    1.180257e-08    1.992101e-09   -2.660000e+00    7.179720e-01    1.433186e+00
    9.073890e-01    5.158564e+01    1.647175e+01    1.962419e+08    1.212165e-08    3.877053e-11    1.179613e-08    1.991641e-09   -2.650000e+00    7.179720e-01    1.425253e+00
    9.131775e-01    5.358935e+01    1.632250e+01    1.957027e+08    1.212174e-08    3.765924e-11    1.178966e-08    1.991182e-09   -2.640000e+00    7.179720e-01    1.417329e+00
    9.189985e-01    5.562470e+01    1.617365e+01    1.951526e+08    1.212185e-08    3.658381e-11    1.178316e-08    1.990725e-09   -2.630000e+00    7.179720e-01    1.409413e+00
    9.248547e-01    5.769050e+01    1.602522e+01    1.945920e+08    1.212196e-08    3.554295e-11    1.177663e-08    1.990268e-09   -2.620000e+00    7.179720e-01    1.401505e+00
    9.307483e-01    5.978564e+01    1.587723e+01    1.940216e+08    1.212208e-08    3.453542e-11    1.177008e-08    1.989814e-09   -2.610000e+00    7.179720e-01    1.393605e+00
    9.366814e-01    6.190906e+01    1.572967e+01    1.934415e+08    1.212221e-08    3.356002e-11    1.176349e-08    1.989360e-09   -2.600000e+00    7.179720e-01    1.385713e+00
    9.426558e-01    6.405978e+01    1.558256e+01    1.928524e+08    1.212235e-08    3.261562e-11    1.175688e-08    1.988907e-09   -2.590000e+00    7.179720e-01    1.377830e+00
    9.486742e-01    6.623692e+01    1.543589e+01    1.922546e+08    1.212250e-08    3.170108e-11    1.175023e-08    1.988456e-09   -2.580000e+00    7.179720e-01    1.369955e+00
    9.547381e-01    6.843968e+01    1.528969e+01    1.916485e+08    1.212265e-08    3.081539e-11    1.174356e-08    1.988006e-09   -2.570000e+00    7.179720e-01    1.362087e+00
    9.608500e-01    7.066733e+01    1.514395e+01    1.910343e+08    1.212281e-08    2.995749e-11    1.173686e-08    1.987557e-09   -2.560000e+00    7.179720e-01    1.354228e+00
    9.670117e-01    7.291925e+01    1.499867e+01    1.904124e+08    1.212298e-08    2.912642e-11    1.173013e-08    1.987109e-09   -2.550000e+00    7.179720e-01    1.346377e+00
    9.732252e-01    7.519484e+01    1.485387e+01    1.897831e+08    1.212315e-08    2.832123e-11    1.172338e-08    1.986661e-09   -2.540000e+00    7.179720e-01    1.338534e+00
    9.794922e-01    7.749364e+01    1.470955e+01    1.891466e+08    1.212333e-08    2.754102e-11    1.171660e-08    1.986214e-09   -2.530000e+00    7.179720e-01    1.330699e+00
    9.858146e-01    7.981522e+01    1.456571e+01    1.885033e+08    1.212350e-08    2.678491e-11    1.170979e-08    1.985768e-09   -2.520000e+00    7.179720e-01    1.322872e+00
    9.921941e-01    8.215921e+01    1.442237e+01    1.878533e+08    1.212368e-08    2.605207e-11    1.170295e-08    1.985323e-09   -2.510000e+00    7.179720e-01    1.315053e+00
    9.986320e-01    8.452535e+01    1.427952e+01    1.871967e+08    1.212386e-08    2.534169e-11    1.169608e-08    1.984878e-09   -2.500000e+00    7.179720e-01    1.307242e+00
    1.005131e+00    8.691342e+01    1.413717e+01    1.865340e+08    1.212404e-08    2.465299e-11    1.168920e-08    1.984434e-09   -2.490000e+00    7.179720e-01    1.299439e+00
    1.011693e+00    8.932329e+01    1.399533e+01    1.858651e+08    1.212423e-08    2.398522e-11    1.168227e-08    1.983989e-09   -2.480000e+00    7.179720e-01    1.291644e+00
    1.018318e+00    9.175478e+01    1.385399e+01    1.851902e+08    1.212440e-08    2.333768e-11    1.167533e-08    1.983546e-09   -2.470000e+00    7.179720e-01    1.283857e+00
    1.025010e+00    9.420793e+01    1.371317e+01    1.845095e+08    1.212459e-08    2.270966e-11    1.166836e-08    1.983103e-09   -2.460000e+00    7.179720e-01    1.276078e+00
    1.031769e+00    9.668274e+01    1.357287e+01    1.838233e+08    1.212477e-08    2.210051e-11    1.166136e-08    1.982659e-09   -2.450000e+00    7.179720e-01    1.268306e+00
    1.038597e+00    9.917925e+01    1.343309e+01    1.831315e+08    1.212495e-08    2.150958e-11    1.165434e-08    1.982216e-09   -2.440000e+00    7.179720e-01    1.260543e+00
    1.045496e+00    1.016975e+02    1.329384e+01    1.824343e+08    1.212513e-08    2.093625e-11    1.164728e-08    1.981773e-09   -2.430000e+00    7.179720e-01    1.252787e+00
    1.052467e+00    1.042377e+02    1.315512e+01    1.817319e+08    1.212530e-08    2.037993e-11    1.164020e-08    1.981330e-09   -2.420000e+00    7.179720e-01    1.245039e+00
    1.059513e+00    1.068000e+02    1.301694e+01    1.810242e+08    1.212547e-08    1.984007e-11    1.163309e-08    1.980887e-09   -2.410000e+00    7.179720e-01    1.237299e+00
    1.066635e+00    1.093847e+02    1.287929e+01    1.803115e+08    1.212563e-08    1.931608e-11    1.162596e-08    1.980444e-09   -2.400000e+00    7.179720e-01    1.229567e+00
    1.073835e+00    1.119919e+02    1.274219e+01    1.795937e+08    1.212580e-08    1.880746e-11    1.161880e-08    1.980000e-09   -2.390000e+00    7.179720e-01    1.221843e+00
    1.081115e+00    1.146220e+02    1.260563e+01    1.788712e+08    1.212596e-08    1.831369e-11    1.161161e-08    1.979556e-09   -2.380000e+00    7.179720e-01    1.214126e+00
    1.088475e+00    1.172753e+02    1.246963e+01    1.781437e+08    1.212611e-08    1.783429e-11    1.160439e-08    1.979112e-09   -2.370000e+00    7.179720e-01    1.206417e+00
    1.095918e+00    1.199521e+02    1.233418e+01    1.774115e+08    1.212626e-08    1.736877e-11    1.159715e-08    1.978667e-09   -2.360000e+00    7.179720e-01    1.198716e+00
    1.103447e+00    1.226529e+02    1.219928e+01    1.766746e+08    1.212640e-08    1.691668e-11    1.158987e-08    1.978222e-09   -2.350000e+00    7.179720e-01    1.191022e+00
    1.111062e+00    1.253780e+02    1.206495e+01    1.759331e+08    1.212653e-08    1.647758e-11    1.158258e-08    1.977776e-09   -2.340000e+00    7.179720e-01    1.183336e+00
    1.118766e+00    1.281278e+02    1.193118e+01    1.751870e+08    1.212666e-08    1.605106e-11    1.157525e-08    1.977329e-09   -2.330000e+00    7.179720e-01    1.175658e+00
    1.126560e+00    1.309028e+02    1.179799e+01    1.744364e+08    1.212677e-08    1.563670e-11    1.156789e-08    1.976882e-09   -2.320000e+00    7.179720e-01    1.167988e+00
    1.134446e+00    1.337034e+02    1.166536e+01    1.736813e+08    1.212688e-08    1.523410e-11    1.156051e-08    1.976433e-09   -2.310000e+00    7.179720e-01    1.160325e+00
    1.142426e+00    1.365303e+02    1.153331e+01    1.729218e+08    1.212698e-08    1.484288e-11    1.155309e-08    1.975985e-09   -2.300000e+00    7.179720e-01    1.152669e+00
    1.150503e+00    1.393839e+02    1.140184e+01    1.721579e+08    1.212708e-08    1.446270e-11    1.154565e-08    1.975534e-09   -2.290000e+00    7.179720e-01    1.145022e+00
    1.158677e+00    1.422646e+02    1.127096e+01    1.713897e+08    1.212716e-08    1.409319e-11    1.153818e-08    1.975083e-09   -2.280000e+00    7.179720e-01    1.137382e+00
    1.166953e+00    1.451732e+02    1.114066e+01    1.706172e+08    1.212723e-08    1.373400e-11    1.153068e-08    1.974631e-09   -2.270000e+00    7.179720e-01    1.129749e+00
    1.175330e+00    1.481100e+02    1.101094e+01    1.698404e+08    1.212728e-08    1.338482e-11    1.152314e-08    1.974178e-09   -2.260000e+00    7.179720e-01    1.122124e+00
    1.183811e+00    1.510758e+02    1.088183e+01    1.690594e+08    1.212734e-08    1.304533e-11    1.151558e-08    1.973723e-09   -2.250000e+00    7.179720e-01    1.114507e+00
    1.192400e+00    1.540712e+02    1.075330e+01    1.682741e+08    1.212738e-08    1.271521e-11    1.150798e-08    1.973267e-09   -2.240000e+00    7.179720e-01    1.106897e+00
    1.201097e+00    1.570967e+02    1.062539e+01    1.674847e+08    1.212740e-08    1.239419e-11    1.150037e-08    1.972809e-09   -2.230000e+00    7.179720e-01    1.099294e+00
    1.209906e+00    1.601531e+02    1.049807e+01    1.666912e+08    1.212741e-08    1.208197e-11    1.149271e-08    1.972349e-09   -2.220000e+00    7.179720e-01    1.091700e+00
