# GF180MCU-D nfet_03v3 gm/ID Processed Lookup Table
# Corner: typical
# Temperature: 85C
# W = 2.0 um
# L = 4 um (4000 nm)
# Columns: gm/id [1/V]  gm/gds [V/V]  id/W [A/m]  ft [Hz]  Cgg/W [F/m]  Cgd/W [F/m]  Cgs/W [F/m]  Cdb/W [F/m]  vgs [V]  vth [V]  vdsat [V]
# vdsat = BSIM saturation voltage (|VDS|_sat, positive); use for headroom / saturation / cascode-bias calculations
#           gm/id          gm/gds            id/W              ft           Cgg/W           Cgd/W           Cgs/W           Cdb/W             vgs             vth           vdsat
    2.249782e+01    6.555655e+02    8.031535e-05    5.451500e+04    5.275250e-09    2.728310e-15    2.322842e-10    5.085710e-11    2.700000e-01    5.910718e-01    4.440930e-02
    2.248023e+01    6.539532e+02    1.005714e-04    6.818449e+04    5.277275e-09    3.041715e-15    2.610314e-10    5.649400e-11    2.800000e-01    5.910718e-01    4.443007e-02
    2.244650e+01    6.522231e+02    1.259037e-04    8.515659e+04    5.281885e-09    3.391108e-15    2.931852e-10    6.274895e-11    2.900000e-01    5.910718e-01    4.445603e-02
    2.239814e+01    6.503774e+02    1.575519e-04    1.061830e+05    5.289330e-09    3.780597e-15    3.291162e-10    6.968485e-11    3.000000e-01    5.910718e-01    4.448841e-02
    2.233628e+01    6.484220e+02    1.970467e-04    1.321699e+05    5.299900e-09    4.214733e-15    3.692272e-10    7.736965e-11    3.100000e-01    5.910718e-01    4.452877e-02
    2.226177e+01    6.463676e+02    2.462738e-04    1.642045e+05    5.313895e-09    4.698548e-15    4.139528e-10    8.587620e-11    3.200000e-01    5.910718e-01    4.457897e-02
    2.217526e+01    6.442317e+02    3.075513e-04    2.035843e+05    5.331655e-09    5.237595e-15    4.637610e-10    9.528220e-11    3.300000e-01    5.910718e-01    4.464132e-02
    2.207726e+01    6.420383e+02    3.837213e-04    2.518497e+05    5.353525e-09    5.838000e-15    5.191520e-10    1.056701e-10    3.400000e-01    5.910718e-01    4.471859e-02
    2.196821e+01    6.398203e+02    4.782605e-04    3.108183e+05    5.379880e-09    6.506480e-15    5.806575e-10    1.171268e-10    3.500000e-01    5.910718e-01    4.481415e-02
    2.184853e+01    6.376220e+02    5.954100e-04    3.826226e+05    5.411130e-09    7.250420e-15    6.488395e-10    1.297429e-10    3.600000e-01    5.910718e-01    4.493204e-02
    2.171867e+01    6.354989e+02    7.403310e-04    4.697506e+05    5.447685e-09    8.077880e-15    7.242865e-10    1.436125e-10    3.700000e-01    5.910718e-01    4.507709e-02
    2.157913e+01    6.335190e+02    9.192860e-04    5.750869e+05    5.489985e-09    8.997665e-15    8.076085e-10    1.588321e-10    3.800000e-01    5.910718e-01    4.525502e-02
    2.143050e+01    6.317645e+02    1.139854e-03    7.019581e+05    5.538475e-09    1.001932e-14    8.994330e-10    1.754988e-10    3.900000e-01    5.910718e-01    4.547256e-02
    2.127339e+01    6.303316e+02    1.411184e-03    8.541761e+05    5.593620e-09    1.115323e-14    1.000395e-09    1.937097e-10    4.000000e-01    5.910718e-01    4.573757e-02
    2.110852e+01    6.293299e+02    1.744289e-03    1.036090e+06    5.655865e-09    1.241056e-14    1.111129e-09    2.135597e-10    4.100000e-01    5.910718e-01    4.605913e-02
    2.093655e+01    6.288798e+02    2.152394e-03    1.252623e+06    5.725675e-09    1.380332e-14    1.232254e-09    2.351387e-10    4.200000e-01    5.910718e-01    4.644762e-02
    2.075809e+01    6.291117e+02    2.651330e-03    1.509329e+06    5.803465e-09    1.534437e-14    1.364361e-09    2.585300e-10    4.300000e-01    5.910718e-01    4.691474e-02
    2.057352e+01    6.301581e+02    3.259999e-03    1.812413e+06    5.889645e-09    1.704742e-14    1.507996e-09    2.838069e-10    4.400000e-01    5.910718e-01    4.747355e-02
    2.038294e+01    6.321507e+02    4.000889e-03    2.168756e+06    5.984570e-09    1.892694e-14    1.663642e-09    3.110292e-10    4.500000e-01    5.910718e-01    4.813841e-02
    2.018602e+01    6.352106e+02    4.900658e-03    2.585903e+06    6.088535e-09    2.099819e-14    1.831695e-09    3.402405e-10    4.600000e-01    5.910718e-01    4.892478e-02
    1.998186e+01    6.394412e+02    5.990755e-03    3.072004e+06    6.201770e-09    2.327716e-14    2.012443e-09    3.714643e-10    4.700000e-01    5.910718e-01    4.984910e-02
    1.976896e+01    6.449178e+02    7.308090e-03    3.635701e+06    6.324405e-09    2.578039e-14    2.206045e-09    4.047004e-10    4.800000e-01    5.910718e-01    5.092843e-02
    1.954525e+01    6.516797e+02    8.895675e-03    4.285934e+06    6.456465e-09    2.852498e-14    2.412508e-09    4.399219e-10    4.900000e-01    5.910718e-01    5.218010e-02
    1.930810e+01    6.597223e+02    1.080324e-02    5.031659e+06    6.597855e-09    3.152841e-14    2.631664e-09    4.770724e-10    5.000000e-01    5.910718e-01    5.362126e-02
    1.905458e+01    6.689929e+02    1.308775e-02    5.881487e+06    6.748345e-09    3.480838e-14    2.863157e-09    5.160635e-10    5.100000e-01    5.910718e-01    5.526838e-02
    1.878163e+01    6.793871e+02    1.581371e-02    6.843253e+06    6.907560e-09    3.838266e-14    3.106427e-09    5.567740e-10    5.200000e-01    5.910718e-01    5.713672e-02
    1.848649e+01    6.907519e+02    1.905328e-02    7.923542e+06    7.074975e-09    4.226893e-14    3.360703e-09    5.990485e-10    5.300000e-01    5.910718e-01    5.923985e-02
    1.816691e+01    7.028920e+02    2.288608e-02    9.127246e+06    7.249915e-09    4.648452e-14    3.625005e-09    6.427010e-10    5.400000e-01    5.910718e-01    6.158916e-02
    1.782151e+01    7.155767e+02    2.739867e-02    1.045716e+07    7.431565e-09    5.104630e-14    3.898151e-09    6.875140e-10    5.500000e-01    5.910718e-01    6.419350e-02
    1.744993e+01    7.285546e+02    3.268365e-02    1.191376e+07    7.618960e-09    5.597045e-14    4.178774e-09    7.332445e-10    5.600000e-01    5.910718e-01    6.705891e-02
    1.705300e+01    7.415659e+02    3.883848e-02    1.349505e+07    7.811035e-09    6.127230e-14    4.465347e-09    7.796270e-10    5.700000e-01    5.910718e-01    7.018848e-02
    1.663258e+01    7.543541e+02    4.596403e-02    1.519667e+07    8.006625e-09    6.696600e-14    4.756217e-09    8.263820e-10    5.800000e-01    5.910718e-01    7.358235e-02
    1.619157e+01    7.666810e+02    5.416295e-02    1.701217e+07    8.204490e-09    7.306475e-14    5.049640e-09    8.732205e-10    5.900000e-01    5.910718e-01    7.723784e-02
    1.573360e+01    7.783363e+02    6.353790e-02    1.893336e+07    8.403370e-09    7.958030e-14    5.343835e-09    9.198525e-10    6.000000e-01    5.910718e-01    8.114967e-02
    1.526283e+01    7.891427e+02    7.418990e-02    2.095083e+07    8.601985e-09    8.652315e-14    5.637010e-09    9.659940e-10    6.100000e-01    5.910718e-01    8.531031e-02
    1.478358e+01    7.989613e+02    8.621690e-02    2.305443e+07    8.799090e-09    9.390225e-14    5.927430e-09    1.011374e-09    6.200000e-01    5.910718e-01    8.971030e-02
    1.430024e+01    8.076931e+02    9.971215e-02    2.523383e+07    8.993490e-09    1.017253e-13    6.213435e-09    1.055739e-09    6.300000e-01    5.910718e-01    9.433873e-02
    1.381693e+01    8.152766e+02    1.147634e-01    2.747887e+07    9.184090e-09    1.099987e-13    6.493500e-09    1.098866e-09    6.400000e-01    5.910718e-01    9.918357e-02
    1.333742e+01    8.216842e+02    1.314518e-01    2.977998e+07    9.369885e-09    1.187272e-13    6.766255e-09    1.140552e-09    6.500000e-01    5.910718e-01    1.042321e-01
    1.286502e+01    8.269179e+02    1.498517e-01    3.212838e+07    9.550000e-09    1.279149e-13    7.030495e-09    1.180633e-09    6.600000e-01    5.910718e-01    1.094713e-01
    1.240250e+01    8.310042e+02    1.700300e-01    3.451622e+07    9.723700e-09    1.375643e-13    7.285220e-09    1.218974e-09    6.700000e-01    5.910718e-01    1.148879e-01
    1.195212e+01    8.339885e+02    1.920465e-01    3.693671e+07    9.890380e-09    1.476772e-13    7.529625e-09    1.255475e-09    6.800000e-01    5.910718e-01    1.204690e-01
    1.151562e+01    8.359303e+02    2.159537e-01    3.938400e+07    1.004958e-08    1.582547e-13    7.763110e-09    1.290067e-09    6.900000e-01    5.910718e-01    1.262020e-01
    1.109428e+01    8.368980e+02    2.417976e-01    4.185322e+07    1.020099e-08    1.692972e-13    7.985255e-09    1.322713e-09    7.000000e-01    5.910718e-01    1.320749e-01
    1.068897e+01    8.369663e+02    2.696173e-01    4.434031e+07    1.034440e-08    1.808044e-13    8.195830e-09    1.353401e-09    7.100000e-01    5.910718e-01    1.380761e-01
    1.030021e+01    8.362120e+02    2.994465e-01    4.684199e+07    1.047973e-08    1.927759e-13    8.394755e-09    1.382146e-09    7.200000e-01    5.910718e-01    1.441950e-01
    9.928195e+00    8.347115e+02    3.313131e-01    4.935558e+07    1.060701e-08    2.052111e-13    8.582110e-09    1.408982e-09    7.300000e-01    5.910718e-01    1.504214e-01
    9.572909e+00    8.325399e+02    3.652404e-01    5.187893e+07    1.072635e-08    2.181094e-13    8.758085e-09    1.433965e-09    7.400000e-01    5.910718e-01    1.567461e-01
    9.234129e+00    8.297691e+02    4.012471e-01    5.441033e+07    1.083794e-08    2.314698e-13    8.922975e-09    1.457158e-09    7.500000e-01    5.910718e-01    1.631604e-01
    8.911486e+00    8.264663e+02    4.393481e-01    5.694841e+07    1.094202e-08    2.452920e-13    9.077160e-09    1.478641e-09    7.600000e-01    5.910718e-01    1.696566e-01
    8.604500e+00    8.226951e+02    4.795553e-01    5.949202e+07    1.103890e-08    2.595757e-13    9.221085e-09    1.498499e-09    7.700000e-01    5.910718e-01    1.762273e-01
    8.312609e+00    8.185129e+02    5.218775e-01    6.204026e+07    1.112891e-08    2.743210e-13    9.355235e-09    1.516822e-09    7.800000e-01    5.910718e-01    1.828662e-01
    8.035208e+00    8.139728e+02    5.663205e-01    6.459242e+07    1.121239e-08    2.895281e-13    9.480135e-09    1.533704e-09    7.900000e-01    5.910718e-01    1.895671e-01
    7.771649e+00    8.091239e+02    6.128885e-01    6.714781e+07    1.128971e-08    3.051983e-13    9.596315e-09    1.549240e-09    8.000000e-01    5.910718e-01    1.963247e-01
    7.521272e+00    8.040093e+02    6.615840e-01    6.970596e+07    1.136126e-08    3.213325e-13    9.704320e-09    1.563523e-09    8.100000e-01    5.910718e-01    2.031342e-01
    7.283416e+00    7.986676e+02    7.124075e-01    7.226635e+07    1.142741e-08    3.379328e-13    9.804690e-09    1.576645e-09    8.200000e-01    5.910718e-01    2.099911e-01
    7.057418e+00    7.931332e+02    7.653585e-01    7.482849e+07    1.148852e-08    3.550015e-13    9.897960e-09    1.588695e-09    8.300000e-01    5.910718e-01    2.168916e-01
    6.842642e+00    7.874382e+02    8.204360e-01    7.739213e+07    1.154495e-08    3.725415e-13    9.984640e-09    1.599756e-09    8.400000e-01    5.910718e-01    2.238319e-01
    6.638468e+00    7.816091e+02    8.776370e-01    7.995683e+07    1.159705e-08    3.905563e-13    1.006523e-08    1.609911e-09    8.500000e-01    5.910718e-01    2.308088e-01
    6.444296e+00    7.756698e+02    9.369580e-01    8.252221e+07    1.164515e-08    4.090499e-13    1.014018e-08    1.619234e-09    8.600000e-01    5.910718e-01    2.378196e-01
    6.259550e+00    7.696422e+02    9.983960e-01    8.508796e+07    1.168956e-08    4.280269e-13    1.020996e-08    1.627797e-09    8.700000e-01    5.910718e-01    2.448616e-01
    6.083682e+00    7.635432e+02    1.061947e+00    8.765372e+07    1.173057e-08    4.474925e-13    1.027498e-08    1.635666e-09    8.800000e-01    5.910718e-01    2.519325e-01
    5.916178e+00    7.573901e+02    1.127606e+00    9.021919e+07    1.176846e-08    4.674523e-13    1.033562e-08    1.642902e-09    8.900000e-01    5.910718e-01    2.590302e-01
    5.756552e+00    7.511967e+02    1.195368e+00    9.278410e+07    1.180349e-08    4.879126e-13    1.039225e-08    1.649563e-09    9.000000e-01    5.910718e-01    2.661528e-01
    5.604336e+00    7.449748e+02    1.265227e+00    9.534805e+07    1.183590e-08    5.088800e-13    1.044521e-08    1.655700e-09    9.100000e-01    5.910718e-01    2.732986e-01
    5.459102e+00    7.387353e+02    1.337181e+00    9.791087e+07    1.186589e-08    5.303620e-13    1.049482e-08    1.661361e-09    9.200000e-01    5.910718e-01    2.804661e-01
    5.320433e+00    7.324866e+02    1.411222e+00    1.004721e+08    1.189370e-08    5.523665e-13    1.054134e-08    1.666590e-09    9.300000e-01    5.910718e-01    2.876540e-01
    5.187949e+00    7.262362e+02    1.487345e+00    1.030315e+08    1.191949e-08    5.749020e-13    1.058507e-08    1.671428e-09    9.400000e-01    5.910718e-01    2.948610e-01
    5.061292e+00    7.199906e+02    1.565545e+00    1.055887e+08    1.194345e-08    5.979770e-13    1.062622e-08    1.675909e-09    9.500000e-01    5.910718e-01    3.020860e-01
    4.940125e+00    7.137562e+02    1.645817e+00    1.081436e+08    1.196572e-08    6.216010e-13    1.066504e-08    1.680067e-09    9.600000e-01    5.910718e-01    3.093281e-01
    4.824133e+00    7.075370e+02    1.728154e+00    1.106959e+08    1.198645e-08    6.457835e-13    1.070171e-08    1.683934e-09    9.700000e-01    5.910718e-01    3.165863e-01
    4.713019e+00    7.013370e+02    1.812552e+00    1.132452e+08    1.200577e-08    6.705355e-13    1.073642e-08    1.687535e-09    9.800000e-01    5.910718e-01    3.238599e-01
    4.606510e+00    6.951595e+02    1.899004e+00    1.157912e+08    1.202382e-08    6.958680e-13    1.076934e-08    1.690896e-09    9.900000e-01    5.910718e-01    3.311481e-01
    4.504348e+00    6.890080e+02    1.987505e+00    1.183339e+08    1.204068e-08    7.217920e-13    1.080062e-08    1.694037e-09    1.000000e+00    5.910718e-01    3.384504e-01
    4.406292e+00    6.828838e+02    2.078050e+00    1.208730e+08    1.205646e-08    7.483190e-13    1.083042e-08    1.696981e-09    1.010000e+00    5.910718e-01    3.457660e-01
    4.312115e+00    6.767893e+02    2.170633e+00    1.234082e+08    1.207127e-08    7.754615e-13    1.085883e-08    1.699744e-09    1.020000e+00    5.910718e-01    3.530944e-01
    4.221607e+00    6.707258e+02    2.265249e+00    1.259392e+08    1.208517e-08    8.032330e-13    1.088599e-08    1.702344e-09    1.030000e+00    5.910718e-01    3.604353e-01
    4.134571e+00    6.646944e+02    2.361891e+00    1.284660e+08    1.209824e-08    8.316460e-13    1.091200e-08    1.704795e-09    1.040000e+00    5.910718e-01    3.677881e-01
    4.050822e+00    6.586965e+02    2.460555e+00    1.309882e+08    1.211056e-08    8.607150e-13    1.093694e-08    1.707110e-09    1.050000e+00    5.910718e-01    3.751525e-01
    3.970187e+00    6.527323e+02    2.561234e+00    1.335058e+08    1.212217e-08    8.904540e-13    1.096092e-08    1.709301e-09    1.060000e+00    5.910718e-01    3.825282e-01
    3.892507e+00    6.468028e+02    2.663925e+00    1.360186e+08    1.213314e-08    9.208775e-13    1.098400e-08    1.711381e-09    1.070000e+00    5.910718e-01    3.899147e-01
    3.817626e+00    6.409081e+02    2.768620e+00    1.385263e+08    1.214352e-08    9.520015e-13    1.100627e-08    1.713357e-09    1.080000e+00    5.910718e-01    3.973118e-01
    3.745406e+00    6.350483e+02    2.875314e+00    1.410289e+08    1.215336e-08    9.838410e-13    1.102777e-08    1.715239e-09    1.090000e+00    5.910718e-01    4.047193e-01
    3.675711e+00    6.292238e+02    2.984002e+00    1.435262e+08    1.216268e-08    1.016413e-12    1.104857e-08    1.717035e-09    1.100000e+00    5.910718e-01    4.121369e-01
    3.608418e+00    6.234344e+02    3.094679e+00    1.460181e+08    1.217155e-08    1.049734e-12    1.106872e-08    1.718752e-09    1.110000e+00    5.910718e-01    4.195644e-01
    3.543409e+00    6.176801e+02    3.207338e+00    1.485044e+08    1.217999e-08    1.083822e-12    1.108827e-08    1.720397e-09    1.120000e+00    5.910718e-01    4.270016e-01
    3.480574e+00    6.119611e+02    3.321975e+00    1.509851e+08    1.218803e-08    1.118694e-12    1.110727e-08    1.721974e-09    1.130000e+00    5.910718e-01    4.344483e-01
    3.419809e+00    6.062767e+02    3.438584e+00    1.534599e+08    1.219570e-08    1.154370e-12    1.112575e-08    1.723491e-09    1.140000e+00    5.910718e-01    4.419044e-01
    3.361016e+00    6.006267e+02    3.557159e+00    1.559289e+08    1.220302e-08    1.190867e-12    1.114375e-08    1.724951e-09    1.150000e+00    5.910718e-01    4.493698e-01
    3.304105e+00    5.950108e+02    3.677695e+00    1.583920e+08    1.221002e-08    1.228207e-12    1.116130e-08    1.726359e-09    1.160000e+00    5.910718e-01    4.568442e-01
    3.248989e+00    5.894292e+02    3.800187e+00    1.608489e+08    1.221674e-08    1.266408e-12    1.117844e-08    1.727718e-09    1.170000e+00    5.910718e-01    4.643277e-01
    3.195587e+00    5.838810e+02    3.924629e+00    1.632998e+08    1.222317e-08    1.305492e-12    1.119518e-08    1.729032e-09    1.180000e+00    5.910718e-01    4.718200e-01
    3.143822e+00    5.783663e+02    4.051015e+00    1.657446e+08    1.222933e-08    1.345482e-12    1.121156e-08    1.730306e-09    1.190000e+00    5.910718e-01    4.793212e-01
    3.093621e+00    5.728842e+02    4.179340e+00    1.681829e+08    1.223526e-08    1.386398e-12    1.122760e-08    1.731540e-09    1.200000e+00    5.910718e-01    4.868311e-01
    3.044917e+00    5.674346e+02    4.309599e+00    1.706150e+08    1.224096e-08    1.428263e-12    1.124331e-08    1.732738e-09    1.210000e+00    5.910718e-01    4.943496e-01
    2.997644e+00    5.620168e+02    4.441785e+00    1.730406e+08    1.224644e-08    1.471101e-12    1.125873e-08    1.733903e-09    1.220000e+00    5.910718e-01    5.018767e-01
    2.951743e+00    5.566309e+02    4.575895e+00    1.754599e+08    1.225172e-08    1.514937e-12    1.127385e-08    1.735035e-09    1.230000e+00    5.910718e-01    5.094123e-01
    2.907154e+00    5.512759e+02    4.711921e+00    1.778725e+08    1.225681e-08    1.559794e-12    1.128870e-08    1.736138e-09    1.240000e+00    5.910718e-01    5.169564e-01
    2.863825e+00    5.459518e+02    4.849858e+00    1.802788e+08    1.226171e-08    1.605700e-12    1.130331e-08    1.737214e-09    1.250000e+00    5.910718e-01    5.245089e-01
    2.821703e+00    5.406580e+02    4.989702e+00    1.826784e+08    1.226645e-08    1.652680e-12    1.131767e-08    1.738264e-09    1.260000e+00    5.910718e-01    5.320698e-01
    2.780738e+00    5.353939e+02    5.131445e+00    1.850712e+08    1.227103e-08    1.700761e-12    1.133180e-08    1.739289e-09    1.270000e+00    5.910718e-01    5.396391e-01
    2.740885e+00    5.301594e+02    5.275085e+00    1.874575e+08    1.227546e-08    1.749971e-12    1.134572e-08    1.740291e-09    1.280000e+00    5.910718e-01    5.472167e-01
    2.702101e+00    5.249538e+02    5.420610e+00    1.898370e+08    1.227973e-08    1.800340e-12    1.135942e-08    1.741271e-09    1.290000e+00    5.910718e-01    5.548026e-01
    2.664340e+00    5.197769e+02    5.568025e+00    1.922098e+08    1.228388e-08    1.851896e-12    1.137293e-08    1.742230e-09    1.300000e+00    5.910718e-01    5.623969e-01
    2.627569e+00    5.146280e+02    5.717310e+00    1.945758e+08    1.228789e-08    1.904672e-12    1.138626e-08    1.743169e-09    1.310000e+00    5.910718e-01    5.699994e-01
    2.591742e+00    5.095070e+02    5.868475e+00    1.969349e+08    1.229177e-08    1.958697e-12    1.139940e-08    1.744090e-09    1.320000e+00    5.910718e-01    5.776102e-01
    2.556831e+00    5.044132e+02    6.021500e+00    1.992872e+08    1.229554e-08    2.014004e-12    1.141237e-08    1.744992e-09    1.330000e+00    5.910718e-01    5.852292e-01
    2.522797e+00    4.993464e+02    6.176390e+00    2.016327e+08    1.229919e-08    2.070627e-12    1.142517e-08    1.745878e-09    1.340000e+00    5.910718e-01    5.928565e-01
    2.489610e+00    4.943063e+02    6.333135e+00    2.039712e+08    1.230273e-08    2.128599e-12    1.143782e-08    1.746748e-09    1.350000e+00    5.910718e-01    6.004921e-01
