# GF180MCU-D nfet_03v3 gm/ID Processed Lookup Table
# Corner: typical
# Temperature: 85C
# W = 2.0 um
# L = 3.5 um (3500 nm)
# Columns: gm/id [1/V]  gm/gds [V/V]  id/W [A/m]  ft [Hz]  Cgg/W [F/m]  Cgd/W [F/m]  Cgs/W [F/m]  Cdb/W [F/m]  vgs [V]  vth [V]  vdsat [V]
# vdsat = BSIM saturation voltage (|VDS|_sat, positive); use for headroom / saturation / cascode-bias calculations
#           gm/id          gm/gds            id/W              ft           Cgg/W           Cgd/W           Cgs/W           Cdb/W             vgs             vth           vdsat
    2.253721e+01    6.210030e+02    7.094380e-05    5.521915e+04    4.608345e-09    2.072080e-15    1.740418e-10    3.868031e-11    2.600000e-01    5.925910e-01    4.484099e-02
    2.253329e+01    6.196136e+02    8.887750e-05    6.917848e+04    4.607503e-09    2.310357e-15    1.957375e-10    4.297478e-11    2.700000e-01    5.925910e-01    4.485702e-02
    2.251252e+01    6.181144e+02    1.113306e-04    8.655351e+04    4.608653e-09    2.576027e-15    2.200314e-10    4.774394e-11    2.800000e-01    5.925910e-01    4.487708e-02
    2.247661e+01    6.165038e+02    1.394164e-04    1.081373e+05    4.612000e-09    2.872238e-15    2.472141e-10    5.303750e-11    2.900000e-01    5.925910e-01    4.490214e-02
    2.242692e+01    6.147833e+02    1.745126e-04    1.348916e+05    4.617762e-09    3.202487e-15    2.776022e-10    5.890935e-11    3.000000e-01    5.925910e-01    4.493342e-02
    2.236441e+01    6.129579e+02    2.183213e-04    1.679774e+05    4.626184e-09    3.570646e-15    3.115401e-10    6.541760e-11    3.100000e-01    5.925910e-01    4.497241e-02
    2.228983e+01    6.110359e+02    2.729399e-04    2.087890e+05    4.637527e-09    3.981006e-15    3.494005e-10    7.262475e-11    3.200000e-01    5.925910e-01    4.502093e-02
    2.220369e+01    6.090325e+02    3.409487e-04    2.589929e+05    4.652072e-09    4.438301e-15    3.915848e-10    8.059755e-11    3.300000e-01    5.925910e-01    4.508121e-02
    2.210642e+01    6.069689e+02    4.255128e-04    3.205698e+05    4.670126e-09    4.947754e-15    4.385229e-10    8.940695e-11    3.400000e-01    5.925910e-01    4.515595e-02
    2.199839e+01    6.048747e+02    5.305060e-04    3.958607e+05    4.692012e-09    5.515110e-15    4.906731e-10    9.912790e-11    3.500000e-01    5.925910e-01    4.524844e-02
    2.187995e+01    6.027884e+02    6.606570e-04    4.876157e+05    4.718075e-09    6.146670e-15    5.485205e-10    1.098389e-10    3.600000e-01    5.925910e-01    4.536260e-02
    2.175147e+01    6.007600e+02    8.217225e-04    5.990476e+05    4.748678e-09    6.849335e-15    6.125740e-10    1.216215e-10    3.700000e-01    5.925910e-01    4.550314e-02
    2.161339e+01    5.988511e+02    1.020694e-03    7.338873e+05    4.784199e-09    7.630640e-15    6.833635e-10    1.345595e-10    3.800000e-01    5.925910e-01    4.567566e-02
    2.146624e+01    5.971364e+02    1.266037e-03    8.964425e+05    4.825030e-09    8.498780e-15    7.614360e-10    1.487381e-10    3.900000e-01    5.925910e-01    4.588674e-02
    2.131061e+01    5.957034e+02    1.567976e-03    1.091658e+06    4.871570e-09    9.462650e-15    8.473470e-10    1.642425e-10    4.000000e-01    5.925910e-01    4.614411e-02
    2.114715e+01    5.946524e+02    1.938828e-03    1.325177e+06    4.924220e-09    1.053186e-14    9.416535e-10    1.811564e-10    4.100000e-01    5.925910e-01    4.645666e-02
    2.097654e+01    5.940955e+02    2.393390e-03    1.603406e+06    4.983380e-09    1.171674e-14    1.044904e-09    1.995602e-10    4.200000e-01    5.925910e-01    4.683464e-02
    2.079937e+01    5.941523e+02    2.949391e-03    1.933571e+06    5.049430e-09    1.302838e-14    1.157626e-09    2.195289e-10    4.300000e-01    5.925910e-01    4.728962e-02
    2.061607e+01    5.949482e+02    3.628008e-03    2.323765e+06    5.122735e-09    1.447859e-14    1.280311e-09    2.411293e-10    4.400000e-01    5.925910e-01    4.783455e-02
    2.042681e+01    5.966079e+02    4.454460e-03    2.782983e+06    5.203615e-09    1.607989e-14    1.413401e-09    2.644177e-10    4.500000e-01    5.925910e-01    4.848367e-02
    2.023132e+01    5.992470e+02    5.458665e-03    3.321102e+06    5.292350e-09    1.784553e-14    1.557268e-09    2.894367e-10    4.600000e-01    5.925910e-01    4.925246e-02
    2.002882e+01    6.029668e+02    6.675970e-03    3.948830e+06    5.389165e-09    1.978934e-14    1.712193e-09    3.162124e-10    4.700000e-01    5.925910e-01    5.015738e-02
    1.981797e+01    6.078437e+02    8.147885e-03    4.677571e+06    5.494190e-09    2.192574e-14    1.878351e-09    3.447508e-10    4.800000e-01    5.925910e-01    5.121560e-02
    1.959673e+01    6.139211e+02    9.922890e-03    5.519170e+06    5.607485e-09    2.426964e-14    2.055789e-09    3.750355e-10    4.900000e-01    5.925910e-01    5.244468e-02
    1.936260e+01    6.212026e+02    1.205712e-02    6.485588e+06    5.728990e-09    2.683629e-14    2.244406e-09    4.070247e-10    5.000000e-01    5.925910e-01    5.386206e-02
    1.911267e+01    6.296465e+02    1.461500e-02    7.588405e+06    5.858545e-09    2.964123e-14    2.443937e-09    4.406492e-10    5.100000e-01    5.925910e-01    5.548463e-02
    1.884387e+01    6.391623e+02    1.766969e-02    8.838282e+06    5.995855e-09    3.270007e-14    2.653944e-09    4.758110e-10    5.200000e-01    5.925910e-01    5.732813e-02
    1.855332e+01    6.496138e+02    2.130321e-02    1.024432e+07    6.140500e-09    3.602839e-14    2.873804e-09    5.123830e-10    5.300000e-01    5.925910e-01    5.940672e-02
    1.823863e+01    6.608210e+02    2.560635e-02    1.181345e+07    6.291920e-09    3.964152e-14    3.102709e-09    5.502095e-10    5.400000e-01    5.925910e-01    6.173240e-02
    1.789819e+01    6.725707e+02    3.067807e-02    1.354988e+07    6.449440e-09    4.355444e-14    3.339671e-09    5.891070e-10    5.500000e-01    5.925910e-01    6.431468e-02
    1.753144e+01    6.846275e+02    3.662460e-02    1.545475e+07    6.612240e-09    4.778155e-14    3.583535e-09    6.288690e-10    5.600000e-01    5.925910e-01    6.716024e-02
    1.713891e+01    6.967427e+02    4.355805e-02    1.752586e+07    6.779420e-09    5.233655e-14    3.832998e-09    6.692680e-10    5.700000e-01    5.925910e-01    7.027281e-02
    1.672230e+01    7.086727e+02    5.159480e-02    1.975783e+07    6.949965e-09    5.723220e-14    4.086641e-09    7.100625e-10    5.800000e-01    5.925910e-01    7.365305e-02
    1.628428e+01    7.201874e+02    6.085365e-02    2.214233e+07    7.122820e-09    6.248030e-14    4.342951e-09    7.510005e-10    5.900000e-01    5.925910e-01    7.729875e-02
    1.582840e+01    7.310810e+02    7.145370e-02    2.466865e+07    7.296870e-09    6.809165e-14    4.600368e-09    7.918280e-10    6.000000e-01    5.925910e-01    8.120499e-02
    1.535872e+01    7.411801e+02    8.351250e-02    2.732427e+07    7.470990e-09    7.407570e-14    4.857325e-09    8.322935e-10    6.100000e-01    5.925910e-01    8.536445e-02
    1.487962e+01    7.503468e+02    9.714405e-02    3.009556e+07    7.644090e-09    8.044075e-14    5.112275e-09    8.721570e-10    6.200000e-01    5.925910e-01    8.976781e-02
    1.439548e+01    7.584815e+02    1.124573e-01    3.296855e+07    7.815095e-09    8.719390e-14    5.363750e-09    9.111920e-10    6.300000e-01    5.925910e-01    9.440417e-02
    1.391054e+01    7.655206e+02    1.295548e-01    3.592941e+07    7.983025e-09    9.434100e-14    5.610370e-09    9.491935e-10    6.400000e-01    5.925910e-01    9.926142e-02
    1.342868e+01    7.714348e+02    1.485314e-01    3.896508e+07    8.146970e-09    1.018868e-13    5.850895e-09    9.859805e-10    6.500000e-01    5.925910e-01    1.043267e-01
    1.295332e+01    7.762234e+02    1.694741e-01    4.206352e+07    8.306135e-09    1.098349e-13    6.084230e-09    1.021400e-09    6.600000e-01    5.925910e-01    1.095866e-01
    1.248737e+01    7.799099e+02    1.924614e-01    4.521398e+07    8.459835e-09    1.181879e-13    6.309450e-09    1.055325e-09    6.700000e-01    5.925910e-01    1.150277e-01
    1.203321e+01    7.825371e+02    2.175630e-01    4.840706e+07    8.607515e-09    1.269477e-13    6.525805e-09    1.087662e-09    6.800000e-01    5.925910e-01    1.206368e-01
    1.159270e+01    7.841615e+02    2.448403e-01    5.163479e+07    8.748735e-09    1.361153e-13    6.732710e-09    1.118343e-09    6.900000e-01    5.925910e-01    1.264010e-01
    1.116723e+01    7.848495e+02    2.743468e-01    5.489047e+07    8.883180e-09    1.456912e-13    6.929765e-09    1.147327e-09    7.000000e-01    5.925910e-01    1.323077e-01
    1.075773e+01    7.846731e+02    3.061283e-01    5.816857e+07    9.010650e-09    1.556754e-13    7.116715e-09    1.174599e-09    7.100000e-01    5.925910e-01    1.383452e-01
    1.036481e+01    7.837068e+02    3.402238e-01    6.146462e+07    9.131050e-09    1.660676e-13    7.293475e-09    1.200166e-09    7.200000e-01    5.925910e-01    1.445024e-01
    9.988710e+00    7.820253e+02    3.766654e-01    6.477504e+07    9.244375e-09    1.768672e-13    7.460060e-09    1.224054e-09    7.300000e-01    5.925910e-01    1.507690e-01
    9.629462e+00    7.797016e+02    4.154799e-01    6.809693e+07    9.350710e-09    1.880737e-13    7.616625e-09    1.246306e-09    7.400000e-01    5.925910e-01    1.571354e-01
    9.286870e+00    7.768060e+02    4.566888e-01    7.142802e+07    9.450205e-09    1.996864e-13    7.763400e-09    1.266978e-09    7.500000e-01    5.925910e-01    1.635926e-01
    8.960589e+00    7.734040e+02    5.003090e-01    7.476655e+07    9.543060e-09    2.117050e-13    7.900705e-09    1.286134e-09    7.600000e-01    5.925910e-01    1.701326e-01
    8.650145e+00    7.695569e+02    5.463540e-01    7.811111e+07    9.629525e-09    2.241290e-13    8.028915e-09    1.303848e-09    7.700000e-01    5.925910e-01    1.767480e-01
    8.355000e+00    7.653209e+02    5.948325e-01    8.146052e+07    9.709885e-09    2.369584e-13    8.148450e-09    1.320201e-09    7.800000e-01    5.925910e-01    1.834320e-01
    8.074532e+00    7.607487e+02    6.457520e-01    8.481390e+07    9.784445e-09    2.501937e-13    8.259755e-09    1.335271e-09    7.900000e-01    5.925910e-01    1.901785e-01
    7.808098e+00    7.558870e+02    6.991165e-01    8.817046e+07    9.853530e-09    2.638355e-13    8.363305e-09    1.349142e-09    8.000000e-01    5.925910e-01    1.969819e-01
    7.555025e+00    7.507761e+02    7.549280e-01    9.152946e+07    9.917465e-09    2.778848e-13    8.459570e-09    1.361896e-09    8.100000e-01    5.925910e-01    2.038373e-01
    7.314663e+00    7.454557e+02    8.131865e-01    9.489059e+07    9.976575e-09    2.923432e-13    8.549025e-09    1.373616e-09    8.200000e-01    5.925910e-01    2.107401e-01
    7.086330e+00    7.399586e+02    8.738910e-01    9.825306e+07    1.003120e-08    3.072127e-13    8.632145e-09    1.384377e-09    8.300000e-01    5.925910e-01    2.176862e-01
    6.869389e+00    7.343151e+02    9.370390e-01    1.016167e+08    1.008163e-08    3.224958e-13    8.709375e-09    1.394255e-09    8.400000e-01    5.925910e-01    2.246720e-01
    6.663196e+00    7.285502e+02    1.002627e+00    1.049808e+08    1.012820e-08    3.381954e-13    8.781160e-09    1.403324e-09    8.500000e-01    5.925910e-01    2.316941e-01
    6.467142e+00    7.226876e+02    1.070652e+00    1.083451e+08    1.017119e-08    3.543149e-13    8.847915e-09    1.411649e-09    8.600000e-01    5.925910e-01    2.387497e-01
    6.280658e+00    7.167481e+02    1.141107e+00    1.117091e+08    1.021087e-08    3.708583e-13    8.910035e-09    1.419293e-09    8.700000e-01    5.925910e-01    2.458361e-01
    6.103177e+00    7.107485e+02    1.213987e+00    1.150725e+08    1.024752e-08    3.878300e-13    8.967890e-09    1.426317e-09    8.800000e-01    5.925910e-01    2.529509e-01
    5.934175e+00    7.047038e+02    1.289288e+00    1.184348e+08    1.028137e-08    4.052349e-13    9.021840e-09    1.432774e-09    8.900000e-01    5.925910e-01    2.600919e-01
    5.773153e+00    6.986280e+02    1.367003e+00    1.217957e+08    1.031266e-08    4.230784e-13    9.072195e-09    1.438716e-09    9.000000e-01    5.925910e-01    2.672573e-01
    5.619646e+00    6.925321e+02    1.447124e+00    1.251547e+08    1.034160e-08    4.413663e-13    9.119265e-09    1.444189e-09    9.100000e-01    5.925910e-01    2.744452e-01
    5.473209e+00    6.864261e+02    1.529647e+00    1.285115e+08    1.036839e-08    4.601051e-13    9.163325e-09    1.449236e-09    9.200000e-01    5.925910e-01    2.816543e-01
    5.333423e+00    6.803184e+02    1.614564e+00    1.318657e+08    1.039320e-08    4.793015e-13    9.204640e-09    1.453896e-09    9.300000e-01    5.925910e-01    2.888831e-01
    5.199904e+00    6.742159e+02    1.701867e+00    1.352170e+08    1.041621e-08    4.989628e-13    9.243435e-09    1.458205e-09    9.400000e-01    5.925910e-01    2.961303e-01
    5.072280e+00    6.681246e+02    1.791551e+00    1.385648e+08    1.043758e-08    5.190965e-13    9.279930e-09    1.462195e-09    9.500000e-01    5.925910e-01    3.033949e-01
    4.950210e+00    6.620499e+02    1.883610e+00    1.419089e+08    1.045744e-08    5.397115e-13    9.314330e-09    1.465897e-09    9.600000e-01    5.925910e-01    3.106759e-01
    4.833379e+00    6.559962e+02    1.978035e+00    1.452489e+08    1.047592e-08    5.608155e-13    9.346810e-09    1.469336e-09    9.700000e-01    5.925910e-01    3.179722e-01
    4.721484e+00    6.499670e+02    2.074819e+00    1.485845e+08    1.049314e-08    5.824180e-13    9.377540e-09    1.472537e-09    9.800000e-01    5.925910e-01    3.252832e-01
    4.614244e+00    6.439652e+02    2.173957e+00    1.519153e+08    1.050921e-08    6.045280e-13    9.406665e-09    1.475524e-09    9.900000e-01    5.925910e-01    3.326081e-01
    4.511398e+00    6.379933e+02    2.275440e+00    1.552410e+08    1.052423e-08    6.271565e-13    9.434325e-09    1.478315e-09    1.000000e+00    5.925910e-01    3.399463e-01
    4.412701e+00    6.320535e+02    2.379263e+00    1.585613e+08    1.053828e-08    6.503125e-13    9.460640e-09    1.480929e-09    1.010000e+00    5.925910e-01    3.472971e-01
    4.317925e+00    6.261475e+02    2.485417e+00    1.618759e+08    1.055146e-08    6.740080e-13    9.485735e-09    1.483381e-09    1.020000e+00    5.925910e-01    3.546600e-01
    4.226854e+00    6.202761e+02    2.593897e+00    1.651844e+08    1.056382e-08    6.982535e-13    9.509705e-09    1.485686e-09    1.030000e+00    5.925910e-01    3.620345e-01
    4.139290e+00    6.144406e+02    2.704696e+00    1.684867e+08    1.057545e-08    7.230610e-13    9.532645e-09    1.487859e-09    1.040000e+00    5.925910e-01    3.694202e-01
    4.055046e+00    6.086419e+02    2.817805e+00    1.717826e+08    1.058638e-08    7.484425e-13    9.554640e-09    1.489911e-09    1.050000e+00    5.925910e-01    3.768168e-01
    3.973947e+00    6.028808e+02    2.933220e+00    1.750717e+08    1.059671e-08    7.744100e-13    9.575765e-09    1.491852e-09    1.060000e+00    5.925910e-01    3.842237e-01
    3.895828e+00    5.971571e+02    3.050932e+00    1.783538e+08    1.060645e-08    8.009770e-13    9.596090e-09    1.493692e-09    1.070000e+00    5.925910e-01    3.916408e-01
    3.820536e+00    5.914715e+02    3.170935e+00    1.816286e+08    1.061567e-08    8.281570e-13    9.615680e-09    1.495441e-09    1.080000e+00    5.925910e-01    3.990678e-01
    3.747924e+00    5.858236e+02    3.293223e+00    1.848961e+08    1.062440e-08    8.559635e-13    9.634595e-09    1.497105e-09    1.090000e+00    5.925910e-01    4.065043e-01
    3.677863e+00    5.802139e+02    3.417788e+00    1.881560e+08    1.063268e-08    8.844110e-13    9.652885e-09    1.498693e-09    1.100000e+00    5.925910e-01    4.139501e-01
    3.610224e+00    5.746424e+02    3.544624e+00    1.914082e+08    1.064055e-08    9.135145e-13    9.670600e-09    1.500210e-09    1.110000e+00    5.925910e-01    4.214050e-01
    3.544886e+00    5.691085e+02    3.673723e+00    1.946524e+08    1.064803e-08    9.432890e-13    9.687775e-09    1.501663e-09    1.120000e+00    5.925910e-01    4.288689e-01
    3.481740e+00    5.636122e+02    3.805080e+00    1.978885e+08    1.065516e-08    9.737500e-13    9.704455e-09    1.503056e-09    1.130000e+00    5.925910e-01    4.363415e-01
    3.420682e+00    5.581533e+02    3.938687e+00    2.011165e+08    1.066195e-08    1.004914e-12    9.720675e-09    1.504394e-09    1.140000e+00    5.925910e-01    4.438227e-01
    3.361611e+00    5.527314e+02    4.074537e+00    2.043360e+08    1.066844e-08    1.036798e-12    9.736470e-09    1.505682e-09    1.150000e+00    5.925910e-01    4.513124e-01
    3.304436e+00    5.473461e+02    4.212625e+00    2.075471e+08    1.067465e-08    1.069419e-12    9.751865e-09    1.506924e-09    1.160000e+00    5.925910e-01    4.588104e-01
    3.249070e+00    5.419972e+02    4.352942e+00    2.107497e+08    1.068059e-08    1.102794e-12    9.766885e-09    1.508122e-09    1.170000e+00    5.925910e-01    4.663165e-01
    3.195430e+00    5.366841e+02    4.495483e+00    2.139436e+08    1.068628e-08    1.136944e-12    9.781560e-09    1.509281e-09    1.180000e+00    5.925910e-01    4.738308e-01
    3.143438e+00    5.314064e+02    4.640240e+00    2.171286e+08    1.069174e-08    1.171884e-12    9.795910e-09    1.510402e-09    1.190000e+00    5.925910e-01    4.813531e-01
    3.093023e+00    5.261638e+02    4.787206e+00    2.203049e+08    1.069698e-08    1.207636e-12    9.809955e-09    1.511489e-09    1.200000e+00    5.925910e-01    4.888833e-01
    3.044113e+00    5.209558e+02    4.936376e+00    2.234721e+08    1.070203e-08    1.244219e-12    9.823715e-09    1.512545e-09    1.210000e+00    5.925910e-01    4.964214e-01
    2.996648e+00    5.157819e+02    5.087740e+00    2.266303e+08    1.070688e-08    1.281655e-12    9.837210e-09    1.513570e-09    1.220000e+00    5.925910e-01    5.039673e-01
    2.950560e+00    5.106416e+02    5.241295e+00    2.297794e+08    1.071155e-08    1.319963e-12    9.850445e-09    1.514566e-09    1.230000e+00    5.925910e-01    5.115209e-01
    2.905794e+00    5.055346e+02    5.397035e+00    2.329193e+08    1.071605e-08    1.359167e-12    9.863445e-09    1.515538e-09    1.240000e+00    5.925910e-01    5.190821e-01
    2.862295e+00    5.004604e+02    5.554950e+00    2.360500e+08    1.072039e-08    1.399288e-12    9.876215e-09    1.516484e-09    1.250000e+00    5.925910e-01    5.266510e-01
    2.820012e+00    4.954184e+02    5.715030e+00    2.391715e+08    1.072458e-08    1.440349e-12    9.888775e-09    1.517407e-09    1.260000e+00    5.925910e-01    5.342275e-01
    2.778893e+00    4.904082e+02    5.877275e+00    2.422836e+08    1.072863e-08    1.482376e-12    9.901130e-09    1.518309e-09    1.270000e+00    5.925910e-01    5.418116e-01
    2.738894e+00    4.854295e+02    6.041675e+00    2.453862e+08    1.073254e-08    1.525391e-12    9.913290e-09    1.519190e-09    1.280000e+00    5.925910e-01    5.494032e-01
    2.699967e+00    4.804815e+02    6.208225e+00    2.484795e+08    1.073632e-08    1.569421e-12    9.925270e-09    1.520051e-09    1.290000e+00    5.925910e-01    5.570024e-01
    2.662073e+00    4.755642e+02    6.376915e+00    2.515633e+08    1.073998e-08    1.614491e-12    9.937075e-09    1.520893e-09    1.300000e+00    5.925910e-01    5.646090e-01
    2.625173e+00    4.706769e+02    6.547735e+00    2.546375e+08    1.074353e-08    1.660628e-12    9.948715e-09    1.521720e-09    1.310000e+00    5.925910e-01    5.722231e-01
    2.589224e+00    4.658191e+02    6.720690e+00    2.577022e+08    1.074696e-08    1.707860e-12    9.960195e-09    1.522529e-09    1.320000e+00    5.925910e-01    5.798448e-01
    2.554195e+00    4.609904e+02    6.895760e+00    2.607572e+08    1.075029e-08    1.756216e-12    9.971520e-09    1.523322e-09    1.330000e+00    5.925910e-01    5.874738e-01
    2.520048e+00    4.561906e+02    7.072950e+00    2.638027e+08    1.075351e-08    1.805724e-12    9.982700e-09    1.524100e-09    1.340000e+00    5.925910e-01    5.951104e-01
