# GF180MCU-D nfet_03v3 gm/ID Processed Lookup Table
# Corner: ss
# Temperature: 25C
# W = 2.0 um
# L = 2.5 um (2500 nm)
# Columns: gm/id [1/V]  gm/gds [V/V]  id/W [A/m]  ft [Hz]  Cgg/W [F/m]  Cgd/W [F/m]  Cgs/W [F/m]  Cdb/W [F/m]  vgs [V]  vth [V]  vdsat [V]
# vdsat = BSIM saturation voltage (|VDS|_sat, positive); use for headroom / saturation / cascode-bias calculations
#           gm/id          gm/gds            id/W              ft           Cgg/W           Cgd/W           Cgs/W           Cdb/W             vgs             vth           vdsat
    2.670474e+01    5.318209e+02    6.996420e-05    9.405114e+04    3.161697e-09    8.576960e-16    7.718565e-11    1.948618e-11    4.700000e-01    7.726726e-01    3.805288e-02
    2.670411e+01    5.304680e+02    9.138295e-05    1.229045e+05    3.160063e-09    9.761100e-16    8.990410e-11    2.208229e-11    4.800000e-01    7.726726e-01    3.806531e-02
    2.667587e+01    5.289689e+02    1.193412e-04    1.603508e+05    3.159788e-09    1.110773e-15    1.044302e-10    2.502517e-11    4.900000e-01    7.726726e-01    3.808152e-02
    2.662314e+01    5.273157e+02    1.557898e-04    2.088272e+05    3.161048e-09    1.263927e-15    1.210164e-10    2.836046e-11    5.000000e-01    7.726726e-01    3.810264e-02
    2.654807e+01    5.255037e+02    2.032400e-04    2.714065e+05    3.164040e-09    1.438119e-15    1.399467e-10    3.213908e-11    5.100000e-01    7.726726e-01    3.813010e-02
    2.645205e+01    5.235316e+02    2.649156e-04    3.519385e+05    3.168985e-09    1.636242e-15    1.615387e-10    3.641752e-11    5.200000e-01    7.726726e-01    3.816574e-02
    2.633592e+01    5.214051e+02    3.449411e-04    4.552138e+05    3.176129e-09    1.861570e-15    1.861455e-10    4.125814e-11    5.300000e-01    7.726726e-01    3.821190e-02
    2.620017e+01    5.191372e+02    4.485753e-04    5.871495e+05    3.185744e-09    2.117803e-15    2.141576e-10    4.672934e-11    5.400000e-01    7.726726e-01    3.827152e-02
    2.604510e+01    5.167513e+02    5.824975e-04    7.549946e+05    3.198132e-09    2.409117e-15    2.460040e-10    5.290570e-11    5.500000e-01    7.726726e-01    3.834831e-02
    2.587088e+01    5.142829e+02    7.551580e-04    9.675523e+05    3.213621e-09    2.740202e-15    2.821528e-10    5.986790e-11    5.600000e-01    7.726726e-01    3.844691e-02
    2.567781e+01    5.117837e+02    9.772005e-04    1.235419e+06    3.232568e-09    3.116320e-15    3.231104e-10    6.770255e-11    5.700000e-01    7.726726e-01    3.857304e-02
    2.546628e+01    5.093219e+02    1.261975e-03    1.571224e+06    3.255355e-09    3.543349e-15    3.694206e-10    7.650145e-11    5.800000e-01    7.726726e-01    3.873371e-02
    2.523693e+01    5.069864e+02    1.626148e-03    1.989879e+06    3.282391e-09    4.027833e-15    4.216603e-10    8.636120e-11    5.900000e-01    7.726726e-01    3.893745e-02
    2.499067e+01    5.048851e+02    2.090434e-03    2.508814e+06    3.314104e-09    4.577025e-15    4.804348e-10    9.738165e-11    6.000000e-01    7.726726e-01    3.919445e-02
    2.472855e+01    5.031456e+02    2.680454e-03    3.148188e+06    3.350939e-09    5.198935e-15    5.463690e-10    1.096643e-10    6.100000e-01    7.726726e-01    3.951676e-02
    2.445184e+01    5.019131e+02    3.427755e-03    3.931089e+06    3.393349e-09    5.902350e-15    6.200975e-10    1.233102e-10    6.200000e-01    7.726726e-01    3.991841e-02
    2.416165e+01    5.013431e+02    4.370989e-03    4.883632e+06    3.441783e-09    6.696870e-15    7.022480e-10    1.384172e-10    6.300000e-01    7.726726e-01    4.041542e-02
    2.385883e+01    5.015936e+02    5.557270e-03    6.034972e+06    3.496677e-09    7.592905e-15    7.934255e-10    1.550762e-10    6.400000e-01    7.726726e-01    4.102575e-02
    2.354362e+01    5.028150e+02    7.043710e-03    7.417129e+06    3.558434e-09    8.601675e-15    8.941880e-10    1.733676e-10    6.500000e-01    7.726726e-01    4.176906e-02
    2.321546e+01    5.051365e+02    8.899070e-03    9.064528e+06    3.627412e-09    9.735160e-15    1.005021e-09    1.933566e-10    6.600000e-01    7.726726e-01    4.266637e-02
    2.287278e+01    5.086524e+02    1.120552e-02    1.101317e+07    3.703895e-09    1.100606e-14    1.126310e-09    2.150878e-10    6.700000e-01    7.726726e-01    4.373950e-02
    2.251302e+01    5.134087e+02    1.406030e-02    1.329932e+07    3.788079e-09    1.242770e-14    1.258305e-09    2.385807e-10    6.800000e-01    7.726726e-01    4.501039e-02
    2.213281e+01    5.193947e+02    1.757729e-02    1.595775e+07    3.880044e-09    1.401391e-14    1.401094e-09    2.638244e-10    6.900000e-01    7.726726e-01    4.650032e-02
    2.172844e+01    5.265379e+02    2.188802e-02    1.901959e+07    3.979736e-09    1.577886e-14    1.554567e-09    2.907725e-10    7.000000e-01    7.726726e-01    4.822903e-02
    2.129643e+01    5.347048e+02    2.714228e-02    2.250995e+07    4.086942e-09    1.773691e-14    1.718397e-09    3.193405e-10    7.100000e-01    7.726726e-01    5.021393e-02
    2.083410e+01    5.437079e+02    3.350769e-02    2.644583e+07    4.201285e-09    1.990236e-14    1.892013e-09    3.494029e-10    7.200000e-01    7.726726e-01    5.246935e-02
    2.034024e+01    5.533219e+02    4.116864e-02    3.083452e+07    4.322207e-09    2.228928e-14    2.074597e-09    3.807930e-10    7.300000e-01    7.726726e-01    5.500600e-02
    1.981534e+01    5.632959e+02    5.032405e-02    3.567279e+07    4.448976e-09    2.491118e-14    2.265082e-09    4.133049e-10    7.400000e-01    7.726726e-01    5.783065e-02
    1.926172e+01    5.733739e+02    6.118450e-02    4.094725e+07    4.580699e-09    2.778087e-14    2.462173e-09    4.466973e-10    7.500000e-01    7.726726e-01    6.094603e-02
    1.868338e+01    5.833112e+02    7.396860e-02    4.663569e+07    4.716334e-09    3.091017e-14    2.664375e-09    4.807005e-10    7.600000e-01    7.726726e-01    6.435100e-02
    1.808558e+01    5.928860e+02    8.889910e-02    5.270903e+07    4.854729e-09    3.430974e-14    2.870036e-09    5.150240e-10    7.700000e-01    7.726726e-01    6.804084e-02
    1.747437e+01    6.019096e+02    1.061988e-01    5.913378e+07    4.994656e-09    3.798887e-14    3.077408e-09    5.493680e-10    7.800000e-01    7.726726e-01    7.200779e-02
    1.685607e+01    6.102311e+02    1.260868e-01    6.587460e+07    5.134855e-09    4.195542e-14    3.284700e-09    5.834315e-10    7.900000e-01    7.726726e-01    7.624157e-02
    1.623685e+01    6.177377e+02    1.487751e-01    7.289633e+07    5.274075e-09    4.621571e-14    3.490149e-09    6.169255e-10    8.000000e-01    7.726726e-01    8.072997e-02
    1.562234e+01    6.243532e+02    1.744655e-01    8.016560e+07    5.411125e-09    5.077460e-14    3.692075e-09    6.495815e-10    8.100000e-01    7.726726e-01    8.545940e-02
    1.501745e+01    6.300334e+02    2.033477e-01    8.765182e+07    5.544915e-09    5.563530e-14    3.888942e-09    6.811600e-10    8.200000e-01    7.726726e-01    9.041543e-02
    1.442628e+01    6.347620e+02    2.355975e-01    9.532793e+07    5.674465e-09    6.079985e-14    4.079400e-09    7.114575e-10    8.300000e-01    7.726726e-01    9.558316e-02
    1.385204e+01    6.385445e+02    2.713752e-01    1.031702e+08    5.798955e-09    6.626890e-14    4.262309e-09    7.403085e-10    8.400000e-01    7.726726e-01    1.009476e-01
    1.329714e+01    6.414042e+02    3.108256e-01    1.111578e+08    5.917730e-09    7.204200e-14    4.436768e-09    7.675895e-10    8.500000e-01    7.726726e-01    1.064941e-01
    1.276325e+01    6.433774e+02    3.540779e-01    1.192729e+08    6.030295e-09    7.811785e-14    4.602111e-09    7.932170e-10    8.600000e-01    7.726726e-01    1.122082e-01
    1.225146e+01    6.445109e+02    4.012451e-01    1.275000e+08    6.136315e-09    8.449445e-14    4.757900e-09    8.171460e-10    8.700000e-01    7.726726e-01    1.180761e-01
    1.176231e+01    6.448561e+02    4.524254e-01    1.358253e+08    6.235610e-09    9.116925e-14    4.903914e-09    8.393650e-10    8.800000e-01    7.726726e-01    1.240847e-01
    1.129591e+01    6.444699e+02    5.077025e-01    1.442364e+08    6.328135e-09    9.813930e-14    5.040120e-09    8.598940e-10    8.900000e-01    7.726726e-01    1.302217e-01
    1.085209e+01    6.434117e+02    5.671465e-01    1.527223e+08    6.413960e-09    1.054017e-13    5.166645e-09    8.787765e-10    9.000000e-01    7.726726e-01    1.364755e-01
    1.043041e+01    6.417404e+02    6.308145e-01    1.612729e+08    6.493245e-09    1.129532e-13    5.283755e-09    8.960755e-10    9.100000e-01    7.726726e-01    1.428353e-01
    1.003024e+01    6.395141e+02    6.987535e-01    1.698786e+08    6.566240e-09    1.207910e-13    5.391820e-09    9.118695e-10    9.200000e-01    7.726726e-01    1.492910e-01
    9.650842e+00    6.367902e+02    7.709985e-01    1.785311e+08    6.633230e-09    1.289123e-13    5.491275e-09    9.262465e-10    9.300000e-01    7.726726e-01    1.558336e-01
    9.291368e+00    6.336225e+02    8.475765e-01    1.872220e+08    6.694555e-09    1.373147e-13    5.582625e-09    9.393010e-10    9.400000e-01    7.726726e-01    1.624546e-01
    8.950928e+00    6.300628e+02    9.285065e-01    1.959439e+08    6.750585e-09    1.459962e-13    5.666395e-09    9.511310e-10    9.500000e-01    7.726726e-01    1.691462e-01
    8.628605e+00    6.261591e+02    1.013799e+00    2.046900e+08    6.801680e-09    1.549551e-13    5.743135e-09    9.618340e-10    9.600000e-01    7.726726e-01    1.759013e-01
    8.323475e+00    6.219565e+02    1.103461e+00    2.134541e+08    6.848215e-09    1.641903e-13    5.813380e-09    9.715060e-10    9.700000e-01    7.726726e-01    1.827137e-01
    8.034608e+00    6.174954e+02    1.197492e+00    2.222297e+08    6.890570e-09    1.737011e-13    5.877670e-09    9.802395e-10    9.800000e-01    7.726726e-01    1.895775e-01
    7.761108e+00    6.128134e+02    1.295886e+00    2.310120e+08    6.929090e-09    1.834873e-13    5.936515e-09    9.881220e-10    9.900000e-01    7.726726e-01    1.964875e-01
    7.502092e+00    6.079447e+02    1.398638e+00    2.397961e+08    6.964115e-09    1.935492e-13    5.990400e-09    9.952355e-10    1.000000e+00    7.726726e-01    2.034390e-01
    7.256709e+00    6.029188e+02    1.505737e+00    2.485772e+08    6.995965e-09    2.038876e-13    6.039785e-09    1.001657e-09    1.010000e+00    7.726726e-01    2.104277e-01
    7.024155e+00    5.977634e+02    1.617168e+00    2.573516e+08    7.024935e-09    2.145038e-13    6.085095e-09    1.007457e-09    1.020000e+00    7.726726e-01    2.174499e-01
    6.803653e+00    5.925030e+02    1.732916e+00    2.661154e+08    7.051310e-09    2.253995e-13    6.126730e-09    1.012700e-09    1.030000e+00    7.726726e-01    2.245020e-01
    6.594469e+00    5.871582e+02    1.852965e+00    2.748655e+08    7.075335e-09    2.365769e-13    6.165050e-09    1.017446e-09    1.040000e+00    7.726726e-01    2.315811e-01
    6.395914e+00    5.817484e+02    1.977296e+00    2.835988e+08    7.097250e-09    2.480386e-13    6.200380e-09    1.021746e-09    1.050000e+00    7.726726e-01    2.386844e-01
    6.207329e+00    5.762899e+02    2.105891e+00    2.923128e+08    7.117260e-09    2.597877e-13    6.233030e-09    1.025650e-09    1.060000e+00    7.726726e-01    2.458095e-01
    6.028102e+00    5.707970e+02    2.238728e+00    3.010052e+08    7.135560e-09    2.718277e-13    6.263270e-09    1.029201e-09    1.070000e+00    7.726726e-01    2.529542e-01
    5.857650e+00    5.652820e+02    2.375789e+00    3.096738e+08    7.152320e-09    2.841624e-13    6.291340e-09    1.032436e-09    1.080000e+00    7.726726e-01    2.601165e-01
    5.695440e+00    5.597561e+02    2.517051e+00    3.183169e+08    7.167700e-09    2.967959e-13    6.317465e-09    1.035391e-09    1.090000e+00    7.726726e-01    2.672947e-01
    5.540960e+00    5.542282e+02    2.662496e+00    3.269326e+08    7.181840e-09    3.097330e-13    6.341845e-09    1.038097e-09    1.100000e+00    7.726726e-01    2.744873e-01
    5.393736e+00    5.487064e+02    2.812100e+00    3.355199e+08    7.194860e-09    3.229786e-13    6.364655e-09    1.040581e-09    1.110000e+00    7.726726e-01    2.816928e-01
    5.253331e+00    5.431975e+02    2.965843e+00    3.440771e+08    7.206880e-09    3.365378e-13    6.386060e-09    1.042867e-09    1.120000e+00    7.726726e-01    2.889100e-01
    5.119332e+00    5.377075e+02    3.123703e+00    3.526033e+08    7.218000e-09    3.504164e-13    6.406195e-09    1.044976e-09    1.130000e+00    7.726726e-01    2.961378e-01
    4.991350e+00    5.322407e+02    3.285661e+00    3.610975e+08    7.228305e-09    3.646202e-13    6.425190e-09    1.046930e-09    1.140000e+00    7.726726e-01    3.033754e-01
    4.869031e+00    5.268018e+02    3.451694e+00    3.695588e+08    7.237880e-09    3.791556e-13    6.443155e-09    1.048742e-09    1.150000e+00    7.726726e-01    3.106216e-01
    4.752039e+00    5.213940e+02    3.621782e+00    3.779867e+08    7.246795e-09    3.940288e-13    6.460195e-09    1.050429e-09    1.160000e+00    7.726726e-01    3.178759e-01
    4.640063e+00    5.160201e+02    3.795904e+00    3.863802e+08    7.255115e-09    4.092471e-13    6.476400e-09    1.052004e-09    1.170000e+00    7.726726e-01    3.251375e-01
    4.532810e+00    5.106824e+02    3.974039e+00    3.947390e+08    7.262895e-09    4.248173e-13    6.491850e-09    1.053480e-09    1.180000e+00    7.726726e-01    3.324058e-01
    4.430012e+00    5.053830e+02    4.156168e+00    4.030625e+08    7.270190e-09    4.407469e-13    6.506615e-09    1.054865e-09    1.190000e+00    7.726726e-01    3.396803e-01
    4.331416e+00    5.001232e+02    4.342270e+00    4.113508e+08    7.277035e-09    4.570437e-13    6.520755e-09    1.056169e-09    1.200000e+00    7.726726e-01    3.469604e-01
    4.236785e+00    4.949044e+02    4.532325e+00    4.196028e+08    7.283485e-09    4.737157e-13    6.534330e-09    1.057401e-09    1.210000e+00    7.726726e-01    3.542457e-01
    4.145901e+00    4.897273e+02    4.726313e+00    4.278188e+08    7.289565e-09    4.907711e-13    6.547390e-09    1.058567e-09    1.220000e+00    7.726726e-01    3.615360e-01
    4.058557e+00    4.845926e+02    4.924214e+00    4.359982e+08    7.295315e-09    5.082185e-13    6.559985e-09    1.059674e-09    1.230000e+00    7.726726e-01    3.688307e-01
    3.974563e+00    4.795008e+02    5.126010e+00    4.441413e+08    7.300755e-09    5.260670e-13    6.572145e-09    1.060728e-09    1.240000e+00    7.726726e-01    3.761297e-01
    3.893740e+00    4.744522e+02    5.331680e+00    4.522479e+08    7.305915e-09    5.443255e-13    6.583910e-09    1.061732e-09    1.250000e+00    7.726726e-01    3.834326e-01
    3.815920e+00    4.694470e+02    5.541205e+00    4.603175e+08    7.310820e-09    5.630040e-13    6.595320e-09    1.062694e-09    1.260000e+00    7.726726e-01    3.907392e-01
    3.740943e+00    4.644850e+02    5.754570e+00    4.683502e+08    7.315490e-09    5.821115e-13    6.606390e-09    1.063614e-09    1.270000e+00    7.726726e-01    3.980494e-01
    3.668667e+00    4.595662e+02    5.971750e+00    4.763461e+08    7.319940e-09    6.016585e-13    6.617155e-09    1.064498e-09    1.280000e+00    7.726726e-01    4.053629e-01
    3.598954e+00    4.546905e+02    6.192730e+00    4.843050e+08    7.324190e-09    6.216560e-13    6.627635e-09    1.065348e-09    1.290000e+00    7.726726e-01    4.126796e-01
    3.531674e+00    4.498576e+02    6.417490e+00    4.922269e+08    7.328255e-09    6.421135e-13    6.637850e-09    1.066168e-09    1.300000e+00    7.726726e-01    4.199993e-01
    3.466704e+00    4.450667e+02    6.646015e+00    5.001119e+08    7.332145e-09    6.630430e-13    6.647825e-09    1.066958e-09    1.310000e+00    7.726726e-01    4.273220e-01
    3.403937e+00    4.403185e+02    6.878280e+00    5.079600e+08    7.335875e-09    6.844555e-13    6.657565e-09    1.067723e-09    1.320000e+00    7.726726e-01    4.346475e-01
    3.343263e+00    4.356112e+02    7.114270e+00    5.157717e+08    7.339450e-09    7.063630e-13    6.667095e-09    1.068463e-09    1.330000e+00    7.726726e-01    4.419758e-01
    3.284580e+00    4.309454e+02    7.353970e+00    5.235460e+08    7.342890e-09    7.287775e-13    6.676425e-09    1.069181e-09    1.340000e+00    7.726726e-01    4.493067e-01
    3.227796e+00    4.263203e+02    7.597360e+00    5.312837e+08    7.346195e-09    7.517110e-13    6.685570e-09    1.069878e-09    1.350000e+00    7.726726e-01    4.566403e-01
    3.172824e+00    4.217354e+02    7.844420e+00    5.389845e+08    7.349380e-09    7.751765e-13    6.694535e-09    1.070555e-09    1.360000e+00    7.726726e-01    4.639764e-01
    3.119579e+00    4.171897e+02    8.095135e+00    5.466488e+08    7.352445e-09    7.991880e-13    6.703335e-09    1.071214e-09    1.370000e+00    7.726726e-01    4.713150e-01
    3.067985e+00    4.126833e+02    8.349480e+00    5.542762e+08    7.355405e-09    8.237580e-13    6.711980e-09    1.071856e-09    1.380000e+00    7.726726e-01    4.786561e-01
    3.017964e+00    4.082154e+02    8.607450e+00    5.618670e+08    7.358260e-09    8.489010e-13    6.720475e-09    1.072482e-09    1.390000e+00    7.726726e-01    4.859997e-01
    2.969450e+00    4.037854e+02    8.869015e+00    5.694214e+08    7.361015e-09    8.746310e-13    6.728835e-09    1.073093e-09    1.400000e+00    7.726726e-01    4.933457e-01
    2.922375e+00    3.993925e+02    9.134165e+00    5.769392e+08    7.363680e-09    9.009635e-13    6.737055e-09    1.073689e-09    1.410000e+00    7.726726e-01    5.006941e-01
    2.876678e+00    3.950368e+02    9.402880e+00    5.844207e+08    7.366255e-09    9.279130e-13    6.745155e-09    1.074272e-09    1.420000e+00    7.726726e-01    5.080450e-01
    2.832301e+00    3.907174e+02    9.675140e+00    5.918657e+08    7.368745e-09    9.554955e-13    6.753130e-09    1.074842e-09    1.430000e+00    7.726726e-01    5.153983e-01
    2.789187e+00    3.864334e+02    9.950930e+00    5.992741e+08    7.371160e-09    9.837270e-13    6.760990e-09    1.075400e-09    1.440000e+00    7.726726e-01    5.227541e-01
    2.747283e+00    3.821850e+02    1.023024e+01    6.066466e+08    7.373495e-09    1.012625e-12    6.768740e-09    1.075947e-09    1.450000e+00    7.726726e-01    5.301123e-01
    2.706542e+00    3.779709e+02    1.051303e+01    6.139825e+08    7.375760e-09    1.042205e-12    6.776390e-09    1.076482e-09    1.460000e+00    7.726726e-01    5.374730e-01
    2.666914e+00    3.737912e+02    1.079931e+01    6.212822e+08    7.377955e-09    1.072485e-12    6.783935e-09    1.077008e-09    1.470000e+00    7.726726e-01    5.448362e-01
    2.628355e+00    3.696448e+02    1.108904e+01    6.285460e+08    7.380080e-09    1.103485e-12    6.791380e-09    1.077522e-09    1.480000e+00    7.726726e-01    5.522018e-01
    2.590823e+00    3.655316e+02    1.138222e+01    6.357733e+08    7.382145e-09    1.135221e-12    6.798740e-09    1.078028e-09    1.490000e+00    7.726726e-01    5.595700e-01
    2.554278e+00    3.614510e+02    1.167883e+01    6.429645e+08    7.384150e-09    1.167714e-12    6.806005e-09    1.078525e-09    1.500000e+00    7.726726e-01    5.669407e-01
    2.518683e+00    3.574025e+02    1.197884e+01    6.501201e+08    7.386090e-09    1.200983e-12    6.813185e-09    1.079012e-09    1.510000e+00    7.726726e-01    5.743140e-01
    2.483999e+00    3.533856e+02    1.228224e+01    6.572390e+08    7.387980e-09    1.235049e-12    6.820285e-09    1.079492e-09    1.520000e+00    7.726726e-01    5.816899e-01
    2.450194e+00    3.493997e+02    1.258901e+01    6.643224e+08    7.389810e-09    1.269933e-12    6.827300e-09    1.079963e-09    1.530000e+00    7.726726e-01    5.890685e-01
    2.417234e+00    3.454447e+02    1.289914e+01    6.713696e+08    7.391590e-09    1.305656e-12    6.834245e-09    1.080425e-09    1.540000e+00    7.726726e-01    5.964497e-01
    2.385087e+00    3.415196e+02    1.321261e+01    6.783807e+08    7.393320e-09    1.342240e-12    6.841110e-09    1.080882e-09    1.550000e+00    7.726726e-01    6.038337e-01
