# GF180MCU-D nfet_03v3 gm/ID Processed Lookup Table
# Corner: sf
# Temperature: 85C
# W = 2.0 um
# L = 0.5 um (500 nm)
# Columns: gm/id [1/V]  gm/gds [V/V]  id/W [A/m]  ft [Hz]  Cgg/W [F/m]  Cgd/W [F/m]  Cgs/W [F/m]  Cdb/W [F/m]  vgs [V]  vth [V]  vdsat [V]
# vdsat = BSIM saturation voltage (|VDS|_sat, positive); use for headroom / saturation / cascode-bias calculations
#           gm/id          gm/gds            id/W              ft           Cgg/W           Cgd/W           Cgs/W           Cdb/W             vgs             vth           vdsat
    2.278491e+01    1.706180e+02    1.520158e-04    8.417999e+05    6.548580e-10    7.813005e-15    7.060150e-12    1.980249e-12    3.200000e-01    7.184634e-01    5.865867e-02
    2.278208e+01    1.704490e+02    1.909152e-04    1.059803e+06    6.531740e-10    8.697405e-15    8.098935e-12    2.200594e-12    3.300000e-01    7.184634e-01    5.866280e-02
    2.277114e+01    1.702645e+02    2.397519e-04    1.333459e+06    6.516095e-10    9.683250e-15    9.267275e-12    2.445484e-12    3.400000e-01    7.184634e-01    5.866799e-02
    2.275283e+01    1.700629e+02    3.010371e-04    1.676658e+06    6.501760e-10    1.078297e-14    1.058077e-11    2.717724e-12    3.500000e-01    7.184634e-01    5.867449e-02
    2.272767e+01    1.698429e+02    3.779057e-04    2.106642e+06    6.488850e-10    1.201055e-14    1.205696e-11    3.020435e-12    3.600000e-01    7.184634e-01    5.868265e-02
    2.269595e+01    1.696029e+02    4.742674e-04    2.644744e+06    6.477510e-10    1.338169e-14    1.371553e-11    3.357082e-12    3.700000e-01    7.184634e-01    5.869288e-02
    2.265785e+01    1.693415e+02    5.949925e-04    3.317322e+06    6.467890e-10    1.491399e-14    1.557846e-11    3.731505e-12    3.800000e-01    7.184634e-01    5.870568e-02
    2.261337e+01    1.690568e+02    7.461395e-04    4.156825e+06    6.460165e-10    1.662706e-14    1.767030e-11    4.147949e-12    3.900000e-01    7.184634e-01    5.872171e-02
    2.256237e+01    1.687478e+02    9.352370e-04    5.203097e+06    6.454530e-10    1.854274e-14    2.001830e-11    4.611092e-12    4.000000e-01    7.184634e-01    5.874175e-02
    2.250470e+01    1.684130e+02    1.171622e-03    6.504898e+06    6.451195e-10    2.068526e-14    2.265265e-11    5.126070e-12    4.100000e-01    7.184634e-01    5.876678e-02
    2.244008e+01    1.680516e+02    1.466857e-03    8.121668e+06    6.450405e-10    2.308138e-14    2.560666e-11    5.698515e-12    4.200000e-01    7.184634e-01    5.879802e-02
    2.236821e+01    1.676630e+02    1.835235e-03    1.012559e+07    6.452420e-10    2.576057e-14    2.891698e-11    6.334570e-12    4.300000e-01    7.184634e-01    5.883696e-02
    2.228873e+01    1.672471e+02    2.294388e-03    1.260394e+07    6.457525e-10    2.875516e-14    3.262374e-11    7.040920e-12    4.400000e-01    7.184634e-01    5.888543e-02
    2.220129e+01    1.668047e+02    2.866026e-03    1.566174e+07    6.466040e-10    3.210048e-14    3.677076e-11    7.824795e-12    4.500000e-01    7.184634e-01    5.894569e-02
    2.210553e+01    1.663373e+02    3.576807e-03    1.942472e+07    6.478310e-10    3.583501e-14    4.140566e-11    8.694005e-12    4.600000e-01    7.184634e-01    5.902047e-02
    2.200113e+01    1.658478e+02    4.459399e-03    2.404263e+07    6.494705e-10    4.000041e-14    4.657995e-11    9.656935e-12    4.700000e-01    7.184634e-01    5.911310e-02
    2.188780e+01    1.653400e+02    5.553725e-03    2.969271e+07    6.515635e-10    4.464159e-14    5.234910e-11    1.072253e-11    4.800000e-01    7.184634e-01    5.922761e-02
    2.176532e+01    1.648198e+02    6.908450e-03    3.658360e+07    6.541530e-10    4.980676e-14    5.877255e-11    1.190028e-11    4.900000e-01    7.184634e-01    5.936886e-02
    2.163359e+01    1.642950e+02    8.582715e-03    4.495931e+07    6.572850e-10    5.554730e-14    6.591350e-11    1.320020e-11    5.000000e-01    7.184634e-01    5.954265e-02
    2.149258e+01    1.637752e+02    1.064821e-02    5.510336e+07    6.610085e-10    6.191755e-14    7.383880e-11    1.463275e-11    5.100000e-01    7.184634e-01    5.975588e-02
    2.134237e+01    1.632729e+02    1.319155e-02    6.734291e+07    6.653755e-10    6.897460e-14    8.261860e-11    1.620877e-11    5.200000e-01    7.184634e-01    6.001669e-02
    2.118318e+01    1.628025e+02    1.631712e-02    8.205313e+07    6.704395e-10    7.677790e-14    9.232570e-11    1.793937e-11    5.300000e-01    7.184634e-01    6.033465e-02
    2.101531e+01    1.623812e+02    2.015025e-02    9.966106e+07    6.762555e-10    8.538860e-14    1.030349e-10    1.983576e-11    5.400000e-01    7.184634e-01    6.072080e-02
    2.083908e+01    1.620282e+02    2.484107e-02    1.206491e+08    6.828805e-10    9.486870e-14    1.148220e-10    2.190913e-11    5.500000e-01    7.184634e-01    6.118789e-02
    2.065489e+01    1.617645e+02    3.056872e-02    1.455586e+08    6.903705e-10    1.052803e-13    1.277628e-10    2.417036e-11    5.600000e-01    7.184634e-01    6.175035e-02
    2.046298e+01    1.616119e+02    3.754632e-02    1.749909e+08    6.987805e-10    1.166841e-13    1.419313e-10    2.662980e-11    5.700000e-01    7.184634e-01    6.242440e-02
    2.026346e+01    1.615922e+02    4.602647e-02    2.096076e+08    7.081650e-10    1.291382e-13    1.573981e-10    2.929698e-11    5.800000e-01    7.184634e-01    6.322794e-02
    2.005616e+01    1.617258e+02    5.630730e-02    2.501278e+08    7.185725e-10    1.426964e-13    1.742282e-10    3.218023e-11    5.900000e-01    7.184634e-01    6.418045e-02
    1.984050e+01    1.620296e+02    6.873900e-02    2.973205e+08    7.300475e-10    1.574059e-13    1.924790e-10    3.528630e-11    6.000000e-01    7.184634e-01    6.530279e-02
    1.961543e+01    1.625160e+02    8.373080e-02    3.519919e+08    7.426265e-10    1.733056e-13    2.121974e-10    3.862000e-11    6.100000e-01    7.184634e-01    6.661675e-02
    1.937936e+01    1.631902e+02    1.017576e-01    4.149644e+08    7.563370e-10    1.904238e-13    2.334172e-10    4.218376e-11    6.200000e-01    7.184634e-01    6.814467e-02
    1.913022e+01    1.640497e+02    1.233660e-01    4.870474e+08    7.711950e-10    2.087756e-13    2.561563e-10    4.597722e-11    6.300000e-01    7.184634e-01    6.990882e-02
    1.886556e+01    1.650825e+02    1.491795e-01    5.689994e+08    7.872035e-10    2.283608e-13    2.804140e-10    4.999688e-11    6.400000e-01    7.184634e-01    7.193070e-02
    1.858267e+01    1.662667e+02    1.799015e-01    6.614823e+08    8.043495e-10    2.491619e-13    3.061687e-10    5.423570e-11    6.500000e-01    7.184634e-01    7.423038e-02
    1.827890e+01    1.675712e+02    2.163154e-01    7.650096e+08    8.226040e-10    2.711422e-13    3.333755e-10    5.868300e-11    6.600000e-01    7.184634e-01    7.682566e-02
    1.795193e+01    1.689567e+02    2.592813e-01    8.798971e+08    8.419195e-10    2.942445e-13    3.619648e-10    6.332410e-11    6.700000e-01    7.184634e-01    7.973147e-02
    1.760005e+01    1.703777e+02    3.097286e-01    1.006220e+09    8.622290e-10    3.183903e-13    3.918417e-10    6.814060e-11    6.800000e-01    7.184634e-01    8.295915e-02
    1.722244e+01    1.717848e+02    3.686442e-01    1.143776e+09    8.834485e-10    3.434800e-13    4.228858e-10    7.311020e-11    6.900000e-01    7.184634e-01    8.651607e-02
    1.681931e+01    1.731283e+02    4.370566e-01    1.292080e+09    9.054750e-10    3.693937e-13    4.549525e-10    7.820730e-11    7.000000e-01    7.184634e-01    9.040529e-02
    1.639195e+01    1.743600e+02    5.160170e-01    1.450368e+09    9.281890e-10    3.959927e-13    4.878753e-10    8.340325e-11    7.100000e-01    7.184634e-01    9.462549e-02
    1.594273e+01    1.754368e+02    6.065770e-01    1.617632e+09    9.514570e-10    4.231226e-13    5.214690e-10    8.866705e-11    7.200000e-01    7.184634e-01    9.917106e-02
    1.547491e+01    1.763219e+02    7.097655e-01    1.792665e+09    9.751335e-10    4.506161e-13    5.555330e-10    9.396600e-11    7.300000e-01    7.184634e-01    1.040325e-01
    1.499241e+01    1.769866e+02    8.265680e-01    1.974130e+09    9.990665e-10    4.782976e-13    5.898575e-10    9.926665e-11    7.400000e-01    7.184634e-01    1.091966e-01
    1.449955e+01    1.774107e+02    9.579060e-01    2.160628e+09    1.023099e-09    5.059870e-13    6.242285e-10    1.045356e-10    7.500000e-01    7.184634e-01    1.146476e-01
    1.400085e+01    1.775830e+02    1.104618e+00    2.350767e+09    1.047074e-09    5.335050e-13    6.584320e-10    1.097402e-10    7.600000e-01    7.184634e-01    1.203671e-01
    1.350070e+01    1.774999e+02    1.267451e+00    2.543218e+09    1.070839e-09    5.606770e-13    6.922615e-10    1.148497e-10    7.700000e-01    7.184634e-01    1.263353e-01
    1.300325e+01    1.771651e+02    1.447046e+00    2.736767e+09    1.094250e-09    5.873375e-13    7.255220e-10    1.198357e-10    7.800000e-01    7.184634e-01    1.325312e-01
    1.251220e+01    1.765882e+02    1.643939e+00    2.930349e+09    1.117172e-09    6.133345e-13    7.580330e-10    1.246727e-10    7.900000e-01    7.184634e-01    1.389337e-01
    1.203077e+01    1.757830e+02    1.858559e+00    3.123061e+09    1.139487e-09    6.385320e-13    7.896350e-10    1.293388e-10    8.000000e-01    7.184634e-01    1.455214e-01
    1.156160e+01    1.747670e+02    2.091229e+00    3.314167e+09    1.161089e-09    6.628110e-13    8.201910e-10    1.338159e-10    8.100000e-01    7.184634e-01    1.522739e-01
    1.110681e+01    1.735598e+02    2.342179e+00    3.503096e+09    1.181891e-09    6.860735e-13    8.495855e-10    1.380895e-10    8.200000e-01    7.184634e-01    1.591711e-01
    1.066797e+01    1.721817e+02    2.611545e+00    3.689424e+09    1.201824e-09    7.082415e-13    8.777285e-10    1.421495e-10    8.300000e-01    7.184634e-01    1.661945e-01
    1.024620e+01    1.706536e+02    2.899385e+00    3.872859e+09    1.220836e-09    7.292560e-13    9.045550e-10    1.459890e-10    8.400000e-01    7.184634e-01    1.733265e-01
    9.842185e+00    1.689957e+02    3.205684e+00    4.053216e+09    1.238890e-09    7.490780e-13    9.300205e-10    1.496047e-10    8.500000e-01    7.184634e-01    1.805509e-01
    9.456251e+00    1.672276e+02    3.530370e+00    4.230399e+09    1.255967e-09    7.676865e-13    9.541030e-10    1.529965e-10    8.600000e-01    7.184634e-01    1.878531e-01
    9.088439e+00    1.653677e+02    3.873317e+00    4.404384e+09    1.272059e-09    7.850755e-13    9.768000e-10    1.561669e-10    8.700000e-01    7.184634e-01    1.952195e-01
    8.738546e+00    1.634325e+02    4.234356e+00    4.575189e+09    1.287175e-09    8.012545e-13    9.981245e-10    1.591210e-10    8.800000e-01    7.184634e-01    2.026382e-01
    8.406187e+00    1.614375e+02    4.613287e+00    4.742881e+09    1.301330e-09    8.162435e-13    1.018104e-09    1.618655e-10    8.900000e-01    7.184634e-01    2.100982e-01
    8.090842e+00    1.593963e+02    5.009880e+00    4.907543e+09    1.314550e-09    8.300735e-13    1.036778e-09    1.644085e-10    9.000000e-01    7.184634e-01    2.175900e-01
    7.791885e+00    1.573211e+02    5.423885e+00    5.069272e+09    1.326868e-09    8.427835e-13    1.054195e-09    1.667597e-10    9.100000e-01    7.184634e-01    2.251051e-01
    7.508630e+00    1.552226e+02    5.855035e+00    5.228178e+09    1.338320e-09    8.544175e-13    1.070411e-09    1.689292e-10    9.200000e-01    7.184634e-01    2.326358e-01
    7.240340e+00    1.531101e+02    6.303055e+00    5.384363e+09    1.348950e-09    8.650245e-13    1.085485e-09    1.709278e-10    9.300000e-01    7.184634e-01    2.401757e-01
    6.986261e+00    1.509916e+02    6.767665e+00    5.537936e+09    1.358801e-09    8.746560e-13    1.099480e-09    1.727662e-10    9.400000e-01    7.184634e-01    2.477189e-01
    6.745640e+00    1.488740e+02    7.248575e+00    5.688995e+09    1.367919e-09    8.833655e-13    1.112463e-09    1.744555e-10    9.500000e-01    7.184634e-01    2.552604e-01
    6.517731e+00    1.467632e+02    7.745495e+00    5.837634e+09    1.376350e-09    8.912065e-13    1.124498e-09    1.760064e-10    9.600000e-01    7.184634e-01    2.627958e-01
    6.301800e+00    1.446640e+02    8.258140e+00    5.983935e+09    1.384141e-09    8.982315e-13    1.135649e-09    1.774295e-10    9.700000e-01    7.184634e-01    2.703213e-01
    6.097138e+00    1.425805e+02    8.786220e+00    6.127973e+09    1.391334e-09    9.044925e-13    1.145980e-09    1.787346e-10    9.800000e-01    7.184634e-01    2.778336e-01
    5.903075e+00    1.405163e+02    9.329460e+00    6.269824e+09    1.397975e-09    9.100395e-13    1.155552e-09    1.799315e-10    9.900000e-01    7.184634e-01    2.853300e-01
    5.718952e+00    1.384737e+02    9.887580e+00    6.409540e+09    1.404106e-09    9.149205e-13    1.164422e-09    1.810293e-10    1.000000e+00    7.184634e-01    2.928080e-01
    5.544172e+00    1.364554e+02    1.046030e+01    6.547184e+09    1.409764e-09    9.191800e-13    1.172646e-09    1.820364e-10    1.010000e+00    7.184634e-01    3.002655e-01
    5.378147e+00    1.344630e+02    1.104736e+01    6.682802e+09    1.414989e-09    9.228610e-13    1.180276e-09    1.829607e-10    1.020000e+00    7.184634e-01    3.077008e-01
    5.220337e+00    1.324977e+02    1.164850e+01    6.816434e+09    1.419814e-09    9.260040e-13    1.187361e-09    1.838097e-10    1.030000e+00    7.184634e-01    3.151125e-01
    5.070225e+00    1.305607e+02    1.226346e+01    6.948112e+09    1.424274e-09    9.286455e-13    1.193945e-09    1.845900e-10    1.040000e+00    7.184634e-01    3.224992e-01
    4.927339e+00    1.286526e+02    1.289199e+01    7.077881e+09    1.428398e-09    9.308195e-13    1.200071e-09    1.853082e-10    1.050000e+00    7.184634e-01    3.298599e-01
    4.791231e+00    1.267740e+02    1.353384e+01    7.205762e+09    1.432216e-09    9.325580e-13    1.205778e-09    1.859697e-10    1.060000e+00    7.184634e-01    3.371939e-01
    4.661474e+00    1.249251e+02    1.418878e+01    7.331778e+09    1.435752e-09    9.338900e-13    1.211104e-09    1.865799e-10    1.070000e+00    7.184634e-01    3.445003e-01
    4.537695e+00    1.231062e+02    1.485657e+01    7.455966e+09    1.439031e-09    9.348425e-13    1.216078e-09    1.871437e-10    1.080000e+00    7.184634e-01    3.517786e-01
    4.419515e+00    1.213169e+02    1.553700e+01    7.578336e+09    1.442076e-09    9.354385e-13    1.220734e-09    1.876652e-10    1.090000e+00    7.184634e-01    3.590284e-01
    4.306605e+00    1.195576e+02    1.622983e+01    7.698916e+09    1.444906e-09    9.357005e-13    1.225097e-09    1.881487e-10    1.100000e+00    7.184634e-01    3.662493e-01
    4.198650e+00    1.178277e+02    1.693484e+01    7.817725e+09    1.447539e-09    9.356490e-13    1.229194e-09    1.885975e-10    1.110000e+00    7.184634e-01    3.734410e-01
    4.095351e+00    1.161268e+02    1.765182e+01    7.934771e+09    1.449995e-09    9.353005e-13    1.233048e-09    1.890151e-10    1.120000e+00    7.184634e-01    3.806035e-01
    3.996442e+00    1.144549e+02    1.838058e+01    8.050087e+09    1.452286e-09    9.346720e-13    1.236679e-09    1.894043e-10    1.130000e+00    7.184634e-01    3.877365e-01
    3.901662e+00    1.128114e+02    1.912089e+01    8.163677e+09    1.454427e-09    9.337775e-13    1.240108e-09    1.897677e-10    1.140000e+00    7.184634e-01    3.948400e-01
    3.810782e+00    1.111959e+02    1.987257e+01    8.275572e+09    1.456433e-09    9.326295e-13    1.243351e-09    1.901078e-10    1.150000e+00    7.184634e-01    4.019140e-01
    3.723575e+00    1.096079e+02    2.063543e+01    8.385772e+09    1.458313e-09    9.312400e-13    1.246424e-09    1.904268e-10    1.160000e+00    7.184634e-01    4.089586e-01
    3.639841e+00    1.080470e+02    2.140926e+01    8.494313e+09    1.460078e-09    9.296185e-13    1.249342e-09    1.907267e-10    1.170000e+00    7.184634e-01    4.159738e-01
    3.559385e+00    1.065126e+02    2.219389e+01    8.601202e+09    1.461737e-09    9.277740e-13    1.252116e-09    1.910090e-10    1.180000e+00    7.184634e-01    4.229597e-01
    3.482030e+00    1.050041e+02    2.298914e+01    8.706456e+09    1.463302e-09    9.257145e-13    1.254761e-09    1.912756e-10    1.190000e+00    7.184634e-01    4.299166e-01
    3.407611e+00    1.035213e+02    2.379481e+01    8.810103e+09    1.464777e-09    9.234460e-13    1.257285e-09    1.915277e-10    1.200000e+00    7.184634e-01    4.368444e-01
    3.335970e+00    1.020634e+02    2.461075e+01    8.912148e+09    1.466171e-09    9.209750e-13    1.259699e-09    1.917666e-10    1.210000e+00    7.184634e-01    4.437435e-01
    3.266962e+00    1.006299e+02    2.543677e+01    9.012618e+09    1.467490e-09    9.183060e-13    1.262012e-09    1.919937e-10    1.220000e+00    7.184634e-01    4.506140e-01
    3.200453e+00    9.922043e+01    2.627271e+01    9.111526e+09    1.468741e-09    9.154430e-13    1.264231e-09    1.922097e-10    1.230000e+00    7.184634e-01    4.574562e-01
    3.136313e+00    9.783440e+01    2.711840e+01    9.208896e+09    1.469928e-09    9.123895e-13    1.266364e-09    1.924158e-10    1.240000e+00    7.184634e-01    4.642702e-01
    3.074426e+00    9.647135e+01    2.797369e+01    9.304748e+09    1.471057e-09    9.091475e-13    1.268418e-09    1.926127e-10    1.250000e+00    7.184634e-01    4.710564e-01
    3.014681e+00    9.513079e+01    2.883841e+01    9.399104e+09    1.472131e-09    9.057200e-13    1.270397e-09    1.928013e-10    1.260000e+00    7.184634e-01    4.778149e-01
    2.956970e+00    9.381221e+01    2.971241e+01    9.491972e+09    1.473155e-09    9.021085e-13    1.272309e-09    1.929821e-10    1.270000e+00    7.184634e-01    4.845461e-01
    2.901198e+00    9.251519e+01    3.059553e+01    9.583387e+09    1.474133e-09    8.983130e-13    1.274156e-09    1.931558e-10    1.280000e+00    7.184634e-01    4.912502e-01
    2.847272e+00    9.123922e+01    3.148764e+01    9.673360e+09    1.475067e-09    8.943345e-13    1.275945e-09    1.933230e-10    1.290000e+00    7.184634e-01    4.979275e-01
    2.795104e+00    8.998387e+01    3.238856e+01    9.761909e+09    1.475962e-09    8.901735e-13    1.277680e-09    1.934842e-10    1.300000e+00    7.184634e-01    5.045782e-01
    2.744615e+00    8.874869e+01    3.329817e+01    9.849063e+09    1.476818e-09    8.858285e-13    1.279363e-09    1.936398e-10    1.310000e+00    7.184634e-01    5.112027e-01
    2.695726e+00    8.753329e+01    3.421633e+01    9.934835e+09    1.477640e-09    8.812995e-13    1.280998e-09    1.937903e-10    1.320000e+00    7.184634e-01    5.178013e-01
    2.648368e+00    8.633721e+01    3.514288e+01    1.001925e+10    1.478430e-09    8.765845e-13    1.282589e-09    1.939359e-10    1.330000e+00    7.184634e-01    5.243741e-01
    2.602470e+00    8.516003e+01    3.607771e+01    1.010233e+10    1.479188e-09    8.716830e-13    1.284138e-09    1.940772e-10    1.340000e+00    7.184634e-01    5.309215e-01
    2.557970e+00    8.400143e+01    3.702066e+01    1.018409e+10    1.479918e-09    8.665920e-13    1.285646e-09    1.942142e-10    1.350000e+00    7.184634e-01    5.374439e-01
    2.514806e+00    8.286089e+01    3.797162e+01    1.026454e+10    1.480622e-09    8.613100e-13    1.287119e-09    1.943475e-10    1.360000e+00    7.184634e-01    5.439415e-01
    2.472922e+00    8.173813e+01    3.893044e+01    1.034373e+10    1.481299e-09    8.558345e-13    1.288557e-09    1.944771e-10    1.370000e+00    7.184634e-01    5.504145e-01
    2.432263e+00    8.063277e+01    3.989702e+01    1.042165e+10    1.481953e-09    8.501620e-13    1.289961e-09    1.946033e-10    1.380000e+00    7.184634e-01    5.568633e-01
    2.392779e+00    7.954444e+01    4.087121e+01    1.049834e+10    1.482585e-09    8.442895e-13    1.291335e-09    1.947263e-10    1.390000e+00    7.184634e-01    5.632882e-01
    2.354420e+00    7.847276e+01    4.185289e+01    1.057381e+10    1.483195e-09    8.382140e-13    1.292679e-09    1.948464e-10    1.400000e+00    7.184634e-01    5.696895e-01
