# GF180MCU-D nfet_03v3 gm/ID Processed Lookup Table
# Corner: fs
# Temperature: 25C
# W = 2.0 um
# L = 1.5 um (1500 nm)
# Columns: gm/id [1/V]  gm/gds [V/V]  id/W [A/m]  ft [Hz]  Cgg/W [F/m]  Cgd/W [F/m]  Cgs/W [F/m]  Cdb/W [F/m]  vgs [V]  vth [V]  vdsat [V]
# vdsat = BSIM saturation voltage (|VDS|_sat, positive); use for headroom / saturation / cascode-bias calculations
#           gm/id          gm/gds            id/W              ft           Cgg/W           Cgd/W           Cgs/W           Cdb/W             vgs             vth           vdsat
    2.744472e+01    4.124645e+02    9.638340e-05    2.204597e+05    1.909642e-09    4.127626e-16    3.350913e-11    8.481490e-12    2.900000e-01    5.976425e-01    4.161328e-02
    2.743560e+01    4.115471e+02    1.268194e-04    2.903696e+05    1.907082e-09    4.714138e-16    3.952877e-11    9.638645e-12    3.000000e-01    5.976425e-01    4.162254e-02
    2.740383e+01    4.105240e+02    1.668322e-04    3.819141e+05    1.905222e-09    5.383010e-16    4.642841e-11    1.095417e-11    3.100000e-01    5.976425e-01    4.163471e-02
    2.735170e+01    4.093863e+02    2.193769e-04    5.015258e+05    1.904154e-09    6.145890e-16    5.433680e-11    1.245006e-11    3.200000e-01    5.976425e-01    4.165069e-02
    2.728066e+01    4.081265e+02    2.882929e-04    6.574251e+05    1.903981e-09    7.016095e-16    6.340110e-11    1.415116e-11    3.300000e-01    5.976425e-01    4.167162e-02
    2.719146e+01    4.067388e+02    3.785550e-04    8.600563e+05    1.904823e-09    8.008845e-16    7.378840e-11    1.608550e-11    3.400000e-01    5.976425e-01    4.169901e-02
    2.708441e+01    4.052208e+02    4.965897e-04    1.122610e+06    1.906815e-09    9.141510e-16    8.568780e-11    1.828444e-11    3.500000e-01    5.976425e-01    4.173478e-02
    2.695945e+01    4.035735e+02    6.506730e-04    1.461626e+06    1.910107e-09    1.043389e-15    9.931185e-11    2.078294e-11    3.600000e-01    5.976425e-01    4.178140e-02
    2.681633e+01    4.018036e+02    8.514235e-04    1.897692e+06    1.914870e-09    1.190850e-15    1.148981e-10    2.361981e-11    3.700000e-01    5.976425e-01    4.184199e-02
    2.665467e+01    3.999262e+02    1.112416e-03    2.456217e+06    1.921294e-09    1.359089e-15    1.327105e-10    2.683777e-11    3.800000e-01    5.976425e-01    4.192053e-02
    2.647418e+01    3.979649e+02    1.450927e-03    3.168280e+06    1.929588e-09    1.550999e-15    1.530402e-10    3.048354e-11    3.900000e-01    5.976425e-01    4.202201e-02
    2.627464e+01    3.959549e+02    1.888855e-03    4.071536e+06    1.939980e-09    1.769848e-15    1.762062e-10    3.460789e-11    4.000000e-01    5.976425e-01    4.215266e-02
    2.605609e+01    3.939456e+02    2.453826e-03    5.211139e+06    1.952722e-09    2.019312e-15    2.025548e-10    3.926540e-11    4.100000e-01    5.976425e-01    4.232015e-02
    2.581881e+01    3.920016e+02    3.180526e-03    6.640669e+06    1.968083e-09    2.303513e-15    2.324587e-10    4.451422e-11    4.200000e-01    5.976425e-01    4.253389e-02
    2.556345e+01    3.902036e+02    4.112293e-03    8.423015e+06    1.986352e-09    2.627057e-15    2.663147e-10    5.041545e-11    4.300000e-01    5.976425e-01    4.280520e-02
    2.529090e+01    3.886484e+02    5.303010e-03    1.063115e+07    2.007829e-09    2.995065e-15    3.045393e-10    5.703245e-11    4.400000e-01    5.976425e-01    4.314761e-02
    2.500229e+01    3.874475e+02    6.819330e-03    1.334875e+07    2.032831e-09    3.413208e-15    3.475636e-10    6.442965e-11    4.500000e-01    5.976425e-01    4.357692e-02
    2.469871e+01    3.867219e+02    8.743285e-03    1.667050e+07    2.061676e-09    3.887727e-15    3.958246e-10    7.267095e-11    4.600000e-01    5.976425e-01    4.411135e-02
    2.438101e+01    3.865965e+02    1.117528e-02    2.070197e+07    2.094683e-09    4.425451e-15    4.497545e-10    8.181815e-11    4.700000e-01    5.976425e-01    4.477145e-02
    2.404952e+01    3.871914e+02    1.423744e-02    2.555873e+07    2.132157e-09    5.033800e-15    5.097675e-10    9.192835e-11    4.800000e-01    5.976425e-01    4.557986e-02
    2.370370e+01    3.886105e+02    1.807737e-02    3.136434e+07    2.174380e-09    5.720780e-15    5.762435e-10    1.030512e-10    4.900000e-01    5.976425e-01    4.656091e-02
    2.334197e+01    3.909298e+02    2.287193e-02    3.824682e+07    2.221596e-09    6.494955e-15    6.495075e-10    1.152261e-10    5.000000e-01    5.976425e-01    4.773994e-02
    2.296169e+01    3.941872e+02    2.883102e-02    4.633338e+07    2.273998e-09    7.365395e-15    7.298100e-10    1.284783e-10    5.100000e-01    5.976425e-01    4.914253e-02
    2.255929e+01    3.983733e+02    3.620088e-02    5.574306e+07    2.331706e-09    8.341605e-15    8.173015e-10    1.428163e-10    5.200000e-01    5.976425e-01    5.079347e-02
    2.213080e+01    4.034268e+02    4.526632e-02    6.657810e+07    2.394755e-09    9.433450e-15    9.120125e-10    1.582275e-10    5.300000e-01    5.976425e-01    5.271572e-02
    2.167247e+01    4.092363e+02    5.635165e-02    7.891459e+07    2.463077e-09    1.065101e-14    1.013829e-09    1.746760e-10    5.400000e-01    5.976425e-01    5.492937e-02
    2.118143e+01    4.156456e+02    6.981960e-02    9.279407e+07    2.536487e-09    1.200445e-14    1.122476e-09    1.921003e-10    5.500000e-01    5.976425e-01    5.745070e-02
    2.065640e+01    4.224660e+02    8.606795e-02    1.082177e+08    2.614676e-09    1.350386e-14    1.237506e-09    2.104120e-10    5.600000e-01    5.976425e-01    6.029150e-02
    2.009801e+01    4.294902e+02    1.055243e-01    1.251444e+08    2.697205e-09    1.515910e-14    1.358294e-09    2.294962e-10    5.700000e-01    5.976425e-01    6.345867e-02
    1.950896e+01    4.365083e+02    1.286382e-01    1.434931e+08    2.783512e-09    1.697957e-14    1.484043e-09    2.492133e-10    5.800000e-01    5.976425e-01    6.695410e-02
    1.889382e+01    4.433219e+02    1.558730e-01    1.631501e+08    2.872918e-09    1.897409e-14    1.613801e-09    2.694027e-10    5.900000e-01    5.976425e-01    7.077487e-02
    1.825857e+01    4.497563e+02    1.876955e-01    1.839785e+08    2.964651e-09    2.115071e-14    1.746489e-09    2.898868e-10    6.000000e-01    5.976425e-01    7.491376e-02
    1.761002e+01    4.556664e+02    2.245672e-01    2.058296e+08    3.057867e-09    2.351657e-14    1.880933e-09    3.104784e-10    6.100000e-01    5.976425e-01    7.935985e-02
    1.695524e+01    4.609418e+02    2.669354e-01    2.285534e+08    3.151682e-09    2.607780e-14    2.015909e-09    3.309866e-10    6.200000e-01    5.976425e-01    8.409928e-02
    1.630106e+01    4.655063e+02    3.152252e-01    2.520079e+08    3.245210e-09    2.883947e-14    2.150191e-09    3.512247e-10    6.300000e-01    5.976425e-01    8.911601e-02
    1.565368e+01    4.693150e+02    3.698343e-01    2.760650e+08    3.337587e-09    3.180552e-14    2.282593e-09    3.710168e-10    6.400000e-01    5.976425e-01    9.439254e-02
    1.501843e+01    4.723500e+02    4.311282e-01    3.006142e+08    3.428008e-09    3.497882e-14    2.412015e-09    3.902035e-10    6.500000e-01    5.976425e-01    9.991057e-02
    1.439964e+01    4.746159e+02    4.994375e-01    3.255626e+08    3.515754e-09    3.836122e-14    2.537475e-09    4.086474e-10    6.600000e-01    5.976425e-01    1.056515e-01
    1.380069e+01    4.761350e+02    5.750560e-01    3.508357e+08    3.600206e-09    4.195360e-14    2.658137e-09    4.262355e-10    6.700000e-01    5.976425e-01    1.115971e-01
    1.322399e+01    4.769413e+02    6.582420e-01    3.763732e+08    3.680862e-09    4.575604e-14    2.773326e-09    4.428815e-10    6.800000e-01    5.976425e-01    1.177293e-01
    1.267117e+01    4.770788e+02    7.492175e-01    4.021279e+08    3.757340e-09    4.976792e-14    2.882538e-09    4.585252e-10    6.900000e-01    5.976425e-01    1.240310e-01
    1.214316e+01    4.765961e+02    8.481700e-01    4.280619e+08    3.829376e-09    5.398805e-14    2.985429e-09    4.731320e-10    7.000000e-01    5.976425e-01    1.304861e-01
    1.164033e+01    4.755455e+02    9.552550e-01    4.541451e+08    3.896819e-09    5.841490e-14    3.081811e-09    4.866901e-10    7.100000e-01    5.976425e-01    1.370793e-01
    1.116262e+01    4.739801e+02    1.070598e+00    4.803522e+08    3.959615e-09    6.304655e-14    3.171636e-09    4.992076e-10    7.200000e-01    5.976425e-01    1.437964e-01
    1.070960e+01    4.719521e+02    1.194298e+00    5.066613e+08    4.017801e-09    6.788105e-14    3.254971e-09    5.107095e-10    7.300000e-01    5.976425e-01    1.506244e-01
    1.028061e+01    4.695127e+02    1.326429e+00    5.330531e+08    4.071483e-09    7.291640e-14    3.331983e-09    5.212335e-10    7.400000e-01    5.976425e-01    1.575513e-01
    9.874816e+00    4.667106e+02    1.467043e+00    5.595103e+08    4.120823e-09    7.815065e-14    3.402914e-09    5.308285e-10    7.500000e-01    5.976425e-01    1.645661e-01
    9.491246e+00    4.635911e+02    1.616174e+00    5.860158e+08    4.166027e-09    8.358200e-14    3.468065e-09    5.395490e-10    7.600000e-01    5.976425e-01    1.716589e-01
    9.128874e+00    4.601972e+02    1.773837e+00    6.125540e+08    4.207330e-09    8.920890e-14    3.527773e-09    5.474545e-10    7.700000e-01    5.976425e-01    1.788205e-01
    8.786620e+00    4.565676e+02    1.940035e+00    6.391096e+08    4.244985e-09    9.503000e-14    3.582400e-09    5.546060e-10    7.800000e-01    5.976425e-01    1.860429e-01
    8.463402e+00    4.527383e+02    2.114759e+00    6.656683e+08    4.279254e-09    1.010443e-13    3.632318e-09    5.610650e-10    7.900000e-01    5.976425e-01    1.933186e-01
    8.158145e+00    4.487413e+02    2.297988e+00    6.922160e+08    4.310401e-09    1.072513e-13    3.677899e-09    5.668920e-10    8.000000e-01    5.976425e-01    2.006411e-01
    7.869793e+00    4.446056e+02    2.489695e+00    7.187395e+08    4.338684e-09    1.136504e-13    3.719508e-09    5.721445e-10    8.100000e-01    5.976425e-01    2.080044e-01
    7.597324e+00    4.403569e+02    2.689843e+00    7.452261e+08    4.364351e-09    1.202419e-13    3.757495e-09    5.768785e-10    8.200000e-01    5.976425e-01    2.154033e-01
    7.339763e+00    4.360180e+02    2.898392e+00    7.716639e+08    4.387641e-09    1.270261e-13    3.792191e-09    5.811440e-10    8.300000e-01    5.976425e-01    2.228331e-01
    7.096174e+00    4.316090e+02    3.115297e+00    7.980421e+08    4.408776e-09    1.340036e-13    3.823909e-09    5.849900e-10    8.400000e-01    5.976425e-01    2.302895e-01
    6.865672e+00    4.271480e+02    3.340509e+00    8.243501e+08    4.427963e-09    1.411758e-13    3.852938e-09    5.884600e-10    8.500000e-01    5.976425e-01    2.377688e-01
    6.647417e+00    4.226492e+02    3.573976e+00    8.505780e+08    4.445396e-09    1.485440e-13    3.879545e-09    5.915935e-10    8.600000e-01    5.976425e-01    2.452676e-01
    6.440626e+00    4.181269e+02    3.815644e+00    8.767176e+08    4.461248e-09    1.561100e-13    3.903974e-09    5.944275e-10    8.700000e-01    5.976425e-01    2.527832e-01
    6.244558e+00    4.135916e+02    4.065459e+00    9.027603e+08    4.475680e-09    1.638759e-13    3.926447e-09    5.969945e-10    8.800000e-01    5.976425e-01    2.603127e-01
    6.058522e+00    4.090539e+02    4.323364e+00    9.286986e+08    4.488837e-09    1.718440e-13    3.947165e-09    5.993240e-10    8.900000e-01    5.976425e-01    2.678540e-01
    5.881870e+00    4.045216e+02    4.589303e+00    9.545259e+08    4.500850e-09    1.800171e-13    3.966311e-09    6.014420e-10    9.000000e-01    5.976425e-01    2.754048e-01
    5.714004e+00    4.000018e+02    4.863218e+00    9.802362e+08    4.511840e-09    1.883981e-13    3.984048e-09    6.033725e-10    9.100000e-01    5.976425e-01    2.829636e-01
    5.554360e+00    3.955007e+02    5.145050e+00    1.005824e+09    4.521909e-09    1.969904e-13    4.000523e-09    6.051365e-10    9.200000e-01    5.976425e-01    2.905285e-01
    5.402414e+00    3.910229e+02    5.434745e+00    1.031284e+09    4.531155e-09    2.057974e-13    4.015865e-09    6.067525e-10    9.300000e-01    5.976425e-01    2.980982e-01
    5.257681e+00    3.865733e+02    5.732245e+00    1.056612e+09    4.539662e-09    2.148229e-13    4.030194e-09    6.082370e-10    9.400000e-01    5.976425e-01    3.056715e-01
    5.119708e+00    3.821546e+02    6.037495e+00    1.081805e+09    4.547506e-09    2.240710e-13    4.043613e-09    6.096045e-10    9.500000e-01    5.976425e-01    3.132472e-01
    4.988081e+00    3.777699e+02    6.350430e+00    1.106858e+09    4.554755e-09    2.335458e-13    4.056216e-09    6.108680e-10    9.600000e-01    5.976425e-01    3.208244e-01
    4.862402e+00    3.734213e+02    6.671005e+00    1.131768e+09    4.561469e-09    2.432520e-13    4.068084e-09    6.120390e-10    9.700000e-01    5.976425e-01    3.284021e-01
    4.742317e+00    3.691110e+02    6.999155e+00    1.156534e+09    4.567702e-09    2.531942e-13    4.079292e-09    6.131275e-10    9.800000e-01    5.976425e-01    3.359797e-01
    4.627483e+00    3.648399e+02    7.334830e+00    1.181153e+09    4.573501e-09    2.633774e-13    4.089906e-09    6.141420e-10    9.900000e-01    5.976425e-01    3.435563e-01
    4.517593e+00    3.606096e+02    7.677970e+00    1.205623e+09    4.578909e-09    2.738068e-13    4.099983e-09    6.150910e-10    1.000000e+00    5.976425e-01    3.511316e-01
    4.412348e+00    3.564207e+02    8.028530e+00    1.229942e+09    4.583964e-09    2.844878e-13    4.109575e-09    6.159810e-10    1.010000e+00    5.976425e-01    3.587049e-01
    4.311486e+00    3.522735e+02    8.386445e+00    1.254109e+09    4.588699e-09    2.954261e-13    4.118728e-09    6.168180e-10    1.020000e+00    5.976425e-01    3.662757e-01
    4.214750e+00    3.481686e+02    8.751670e+00    1.278123e+09    4.593144e-09    3.066274e-13    4.127483e-09    6.176075e-10    1.030000e+00    5.976425e-01    3.738437e-01
    4.121907e+00    3.441064e+02    9.124150e+00    1.301983e+09    4.597326e-09    3.180978e-13    4.135875e-09    6.183545e-10    1.040000e+00    5.976425e-01    3.814085e-01
    4.032741e+00    3.400866e+02    9.503830e+00    1.325689e+09    4.601268e-09    3.298438e-13    4.143938e-09    6.190630e-10    1.050000e+00    5.976425e-01    3.889699e-01
    3.947047e+00    3.361092e+02    9.890660e+00    1.349239e+09    4.604991e-09    3.418717e-13    4.151699e-09    6.197370e-10    1.060000e+00    5.976425e-01    3.965275e-01
    3.864635e+00    3.321741e+02    1.028459e+01    1.372634e+09    4.608514e-09    3.541883e-13    4.159186e-09    6.203790e-10    1.070000e+00    5.976425e-01    4.040811e-01
    3.785330e+00    3.282809e+02    1.068557e+01    1.395873e+09    4.611854e-09    3.668006e-13    4.166419e-09    6.209925e-10    1.080000e+00    5.976425e-01    4.116306e-01
    3.708965e+00    3.244293e+02    1.109354e+01    1.418956e+09    4.615026e-09    3.797158e-13    4.173421e-09    6.215805e-10    1.090000e+00    5.976425e-01    4.191757e-01
    3.635387e+00    3.206189e+02    1.150846e+01    1.441883e+09    4.618042e-09    3.929414e-13    4.180208e-09    6.221440e-10    1.100000e+00    5.976425e-01    4.267164e-01
    3.564451e+00    3.168492e+02    1.193027e+01    1.464654e+09    4.620917e-09    4.064850e-13    4.186799e-09    6.226860e-10    1.110000e+00    5.976425e-01    4.342524e-01
    3.496023e+00    3.131199e+02    1.235894e+01    1.487270e+09    4.623659e-09    4.203545e-13    4.193206e-09    6.232080e-10    1.120000e+00    5.976425e-01    4.417838e-01
    3.429975e+00    3.094303e+02    1.279440e+01    1.509731e+09    4.626278e-09    4.345581e-13    4.199442e-09    6.237115e-10    1.130000e+00    5.976425e-01    4.493104e-01
    3.366191e+00    3.057800e+02    1.323662e+01    1.532036e+09    4.628784e-09    4.491043e-13    4.205522e-09    6.241980e-10    1.140000e+00    5.976425e-01    4.568322e-01
    3.304559e+00    3.021683e+02    1.368553e+01    1.554187e+09    4.631183e-09    4.640017e-13    4.211452e-09    6.246690e-10    1.150000e+00    5.976425e-01    4.643490e-01
    3.244974e+00    2.985948e+02    1.414109e+01    1.576183e+09    4.633484e-09    4.792594e-13    4.217246e-09    6.251255e-10    1.160000e+00    5.976425e-01    4.718610e-01
    3.187339e+00    2.950589e+02    1.460326e+01    1.598025e+09    4.635692e-09    4.948864e-13    4.222910e-09    6.255685e-10    1.170000e+00    5.976425e-01    4.793680e-01
    3.131562e+00    2.915598e+02    1.507198e+01    1.619714e+09    4.637812e-09    5.108925e-13    4.228453e-09    6.259985e-10    1.180000e+00    5.976425e-01    4.868701e-01
    3.077556e+00    2.880972e+02    1.554722e+01    1.641250e+09    4.639853e-09    5.272875e-13    4.233882e-09    6.264170e-10    1.190000e+00    5.976425e-01    4.943672e-01
    3.025241e+00    2.846704e+02    1.602892e+01    1.662633e+09    4.641815e-09    5.440815e-13    4.239204e-09    6.268245e-10    1.200000e+00    5.976425e-01    5.018593e-01
    2.974539e+00    2.812789e+02    1.651703e+01    1.683864e+09    4.643706e-09    5.612845e-13    4.244423e-09    6.272215e-10    1.210000e+00    5.976425e-01    5.093466e-01
    2.925378e+00    2.779219e+02    1.701151e+01    1.704944e+09    4.645528e-09    5.789080e-13    4.249547e-09    6.276085e-10    1.220000e+00    5.976425e-01    5.168289e-01
    2.877692e+00    2.745993e+02    1.751232e+01    1.725873e+09    4.647284e-09    5.969625e-13    4.254578e-09    6.279870e-10    1.230000e+00    5.976425e-01    5.243063e-01
    2.831413e+00    2.713100e+02    1.801939e+01    1.746650e+09    4.648980e-09    6.154595e-13    4.259523e-09    6.283560e-10    1.240000e+00    5.976425e-01    5.317789e-01
    2.786481e+00    2.680537e+02    1.853271e+01    1.767277e+09    4.650617e-09    6.344115e-13    4.264385e-09    6.287170e-10    1.250000e+00    5.976425e-01    5.392467e-01
    2.742843e+00    2.648299e+02    1.905221e+01    1.787755e+09    4.652198e-09    6.538295e-13    4.269168e-09    6.290705e-10    1.260000e+00    5.976425e-01    5.467096e-01
    2.700442e+00    2.616381e+02    1.957784e+01    1.808085e+09    4.653727e-09    6.737265e-13    4.273877e-09    6.294165e-10    1.270000e+00    5.976425e-01    5.541679e-01
    2.659227e+00    2.584780e+02    2.010956e+01    1.828266e+09    4.655205e-09    6.941155e-13    4.278513e-09    6.297550e-10    1.280000e+00    5.976425e-01    5.616215e-01
    2.619149e+00    2.553485e+02    2.064734e+01    1.848299e+09    4.656634e-09    7.150100e-13    4.283080e-09    6.300870e-10    1.290000e+00    5.976425e-01    5.690705e-01
    2.580159e+00    2.522493e+02    2.119112e+01    1.868183e+09    4.658016e-09    7.364230e-13    4.287581e-09    6.304130e-10    1.300000e+00    5.976425e-01    5.765149e-01
    2.542221e+00    2.491804e+02    2.174086e+01    1.887923e+09    4.659355e-09    7.583695e-13    4.292019e-09    6.307320e-10    1.310000e+00    5.976425e-01    5.839548e-01
    2.505285e+00    2.461406e+02    2.229650e+01    1.907513e+09    4.660651e-09    7.808630e-13    4.296396e-09    6.310455e-10    1.320000e+00    5.976425e-01    5.913903e-01
    2.469319e+00    2.431301e+02    2.285802e+01    1.926959e+09    4.661906e-09    8.039200e-13    4.300713e-09    6.313535e-10    1.330000e+00    5.976425e-01    5.988213e-01
    2.434282e+00    2.401480e+02    2.342536e+01    1.946259e+09    4.663122e-09    8.275545e-13    4.304975e-09    6.316560e-10    1.340000e+00    5.976425e-01    6.062481e-01
    2.400139e+00    2.371939e+02    2.399849e+01    1.965413e+09    4.664299e-09    8.517835e-13    4.309182e-09    6.319530e-10    1.350000e+00    5.976425e-01    6.136706e-01
    2.366857e+00    2.342676e+02    2.457735e+01    1.984423e+09    4.665441e-09    8.766225e-13    4.313337e-09    6.322455e-10    1.360000e+00    5.976425e-01    6.210890e-01
    2.334405e+00    2.313687e+02    2.516189e+01    2.003291e+09    4.666548e-09    9.020900e-13    4.317441e-09    6.325325e-10    1.370000e+00    5.976425e-01    6.285032e-01
