# GF180MCU-D nfet_03v3 gm/ID Processed Lookup Table
# Corner: fs
# Temperature: 25C
# W = 2.0 um
# L = 3.5 um (3500 nm)
# Columns: gm/id [1/V]  gm/gds [V/V]  id/W [A/m]  ft [Hz]  Cgg/W [F/m]  Cgd/W [F/m]  Cgs/W [F/m]  Cdb/W [F/m]  vgs [V]  vth [V]  vdsat [V]
# vdsat = BSIM saturation voltage (|VDS|_sat, positive); use for headroom / saturation / cascode-bias calculations
#           gm/id          gm/gds            id/W              ft           Cgg/W           Cgd/W           Cgs/W           Cdb/W             vgs             vth           vdsat
    2.716520e+01    6.369596e+02    6.502680e-05    6.180989e+04    4.548492e-09    1.465762e-15    1.373096e-10    3.117615e-11    2.900000e-01    5.808950e-01    3.756899e-02
    2.716014e+01    6.351170e+02    8.532425e-05    8.108691e+04    4.548559e-09    1.670957e-15    1.596456e-10    3.539202e-11    3.000000e-01    5.808950e-01    3.758417e-02
    2.712339e+01    6.330784e+02    1.119335e-04    1.061720e+05    4.551077e-09    1.904740e-15    1.852069e-10    4.017918e-11    3.100000e-01    5.808950e-01    3.760406e-02
    2.705853e+01    6.308358e+02    1.467663e-04    1.387177e+05    4.556368e-09    2.171114e-15    2.144463e-10    4.561316e-11    3.200000e-01    5.808950e-01    3.763007e-02
    2.696807e+01    6.283866e+02    1.922889e-04    1.808021e+05    4.564789e-09    2.474630e-15    2.478706e-10    5.177785e-11    3.300000e-01    5.808950e-01    3.766400e-02
    2.685362e+01    6.257347e+02    2.516731e-04    2.350191e+05    4.576744e-09    2.820456e-15    2.860450e-10    5.876605e-11    3.400000e-01    5.808950e-01    3.770819e-02
    2.671625e+01    6.228946e+02    3.289822e-04    3.045804e+05    4.592678e-09    3.214441e-15    3.295951e-10    6.667955e-11    3.500000e-01    5.808950e-01    3.776557e-02
    2.655664e+01    6.198933e+02    4.294007e-04    3.934277e+05    4.613082e-09    3.663192e-15    3.792086e-10    7.562955e-11    3.600000e-01    5.808950e-01    3.783987e-02
    2.637529e+01    6.167738e+02    5.595160e-04    5.063525e+05    4.638492e-09    4.174154e-15    4.356365e-10    8.573620e-11    3.700000e-01    5.808950e-01    3.793573e-02
    2.617264e+01    6.135980e+02    7.276595e-04    6.491217e+05    4.669493e-09    4.755681e-15    4.996917e-10    9.712850e-11    3.800000e-01    5.808950e-01    3.805896e-02
    2.594929e+01    6.104513e+02    9.443190e-04    8.286037e+05    4.706710e-09    5.417120e-15    5.722460e-10    1.099432e-10    3.900000e-01    5.808950e-01    3.821668e-02
    2.570604e+01    6.074436e+02    1.222632e-03    1.052891e+06    4.750809e-09    6.168890e-15    6.542240e-10    1.243237e-10    4.000000e-01    5.808950e-01    3.841754e-02
    2.544392e+01    6.047100e+02    1.578973e-03    1.331412e+06    4.802490e-09    7.022550e-15    7.465925e-10    1.404179e-10    4.100000e-01    5.808950e-01    3.867197e-02
    2.516423e+01    6.024128e+02    2.033653e-03    1.675033e+06    4.862472e-09    7.990855e-15    8.503485e-10    1.583753e-10    4.200000e-01    5.808950e-01    3.899227e-02
    2.486836e+01    6.007336e+02    2.611731e-03    2.096127e+06    4.931487e-09    9.087815e-15    9.664970e-10    1.783442e-10    4.300000e-01    5.808950e-01    3.939280e-02
    2.455764e+01    5.998688e+02    3.343970e-03    2.608608e+06    5.010260e-09    1.032873e-14    1.096027e-09    2.004663e-10    4.400000e-01    5.808950e-01    3.988995e-02
    2.423308e+01    6.000180e+02    4.267923e-03    3.227898e+06    5.099475e-09    1.173017e-14    1.239881e-09    2.248719e-10    4.500000e-01    5.808950e-01    4.050207e-02
    2.389510e+01    6.013699e+02    5.429150e-03    3.970792e+06    5.199765e-09    1.330998e-14    1.398915e-09    2.516731e-10    4.600000e-01    5.808950e-01    4.124922e-02
    2.354322e+01    6.040849e+02    6.882555e-03    4.855162e+06    5.311680e-09    1.508717e-14    1.573852e-09    2.809570e-10    4.700000e-01    5.808950e-01    4.215274e-02
    2.317591e+01    6.082779e+02    8.693735e-03    5.899477e+06    5.435630e-09    1.708185e-14    1.765240e-09    3.127779e-10    4.800000e-01    5.808950e-01    4.323469e-02
    2.279066e+01    6.140035e+02    1.094032e-02    7.122073e+06    5.571865e-09    1.931504e-14    1.973392e-09    3.471492e-10    4.900000e-01    5.808950e-01    4.451710e-02
    2.238418e+01    6.212441e+02    1.371310e-02    8.540189e+06    5.720440e-09    2.180846e-14    2.198339e-09    3.840364e-10    5.000000e-01    5.808950e-01    4.602114e-02
    2.195291e+01    6.299053e+02    1.711683e-02    1.016884e+07    5.881170e-09    2.458431e-14    2.439782e-09    4.233502e-10    5.100000e-01    5.808950e-01    4.776624e-02
    2.149363e+01    6.398192e+02    2.127052e-02    1.201970e+07    6.053610e-09    2.766487e-14    2.697049e-09    4.649420e-10    5.200000e-01    5.808950e-01    4.976928e-02
    2.100415e+01    6.507567e+02    2.630711e-02    1.410006e+07    6.237025e-09    3.107221e-14    2.969076e-09    5.086015e-10    5.300000e-01    5.808950e-01    5.204388e-02
    2.048378e+01    6.624431e+02    3.237242e-02    1.641226e+07    6.430385e-09    3.482783e-14    3.254393e-09    5.540580e-10    5.400000e-01    5.808950e-01    5.459994e-02
    1.993363e+01    6.745792e+02    3.962341e-02    1.895345e+07    6.632390e-09    3.895221e-14    3.551146e-09    6.009840e-10    5.500000e-01    5.808950e-01    5.744336e-02
    1.935669e+01    6.868642e+02    4.822582e-02    2.171604e+07    6.841480e-09    4.346447e-14    3.857126e-09    6.490040e-10    5.600000e-01    5.808950e-01    6.057602e-02
    1.875743e+01    6.990109e+02    5.835140e-02    2.468844e+07    7.055880e-09    4.838202e-14    4.169838e-09    6.977050e-10    5.700000e-01    5.808950e-01    6.399604e-02
    1.814151e+01    7.107643e+02    7.017495e-02    2.785627e+07    7.273655e-09    5.372025e-14    4.486578e-09    7.466510e-10    5.800000e-01    5.808950e-01    6.769816e-02
    1.751515e+01    7.219081e+02    8.387120e-02    3.120351e+07    7.492790e-09    5.949230e-14    4.804529e-09    7.953980e-10    5.900000e-01    5.808950e-01    7.167423e-02
    1.688468e+01    7.322686e+02    9.961210e-02    3.471365e+07    7.711250e-09    6.570895e-14    5.120870e-09    8.435130e-10    6.000000e-01    5.808950e-01    7.591382e-02
    1.625608e+01    7.417164e+02    1.175643e-01    3.837062e+07    7.927065e-09    7.237855e-14    5.432870e-09    8.905860e-10    6.100000e-01    5.808950e-01    8.040475e-02
    1.563474e+01    7.501620e+02    1.378866e-01    4.215935e+07    8.138400e-09    7.950705e-14    5.737990e-09    9.362455e-10    6.200000e-01    5.808950e-01    8.513363e-02
    1.502520e+01    7.575508e+02    1.607292e-01    4.606619e+07    8.343590e-09    8.709805e-14    6.033970e-09    9.801700e-10    6.300000e-01    5.808950e-01    9.008634e-02
    1.443119e+01    7.638594e+02    1.862313e-01    5.007891e+07    8.541225e-09    9.515325e-14    6.318865e-09    1.022095e-09    6.400000e-01    5.808950e-01    9.524843e-02
    1.385555e+01    7.690878e+02    2.145210e-01    5.418671e+07    8.730135e-09    1.036724e-13    6.591105e-09    1.061813e-09    6.500000e-01    5.808950e-01    1.006054e-01
    1.330035e+01    7.732562e+02    2.457145e-01    5.837998e+07    8.909435e-09    1.126537e-13    6.849500e-09    1.099185e-09    6.600000e-01    5.808950e-01    1.061430e-01
    1.276700e+01    7.763995e+02    2.799159e-01    6.265017e+07    9.078500e-09    1.220940e-13    7.093240e-09    1.134121e-09    6.700000e-01    5.808950e-01    1.118473e-01
    1.225630e+01    7.785646e+02    3.172173e-01    6.698958e+07    9.236960e-09    1.319896e-13    7.321860e-09    1.166592e-09    6.800000e-01    5.808950e-01    1.177050e-01
    1.176861e+01    7.798063e+02    3.576993e-01    7.139109e+07    9.384680e-09    1.423359e-13    7.535215e-09    1.196611e-09    6.900000e-01    5.808950e-01    1.237036e-01
    1.130392e+01    7.801843e+02    4.014314e-01    7.584819e+07    9.521715e-09    1.531279e-13    7.733440e-09    1.224231e-09    7.000000e-01    5.808950e-01    1.298308e-01
    1.086191e+01    7.797627e+02    4.484724e-01    8.035474e+07    9.648295e-09    1.643607e-13    7.916890e-09    1.249540e-09    7.100000e-01    5.808950e-01    1.360757e-01
    1.044207e+01    7.786071e+02    4.988718e-01    8.490500e+07    9.764780e-09    1.760297e-13    8.086105e-09    1.272645e-09    7.200000e-01    5.808950e-01    1.424276e-01
    1.004372e+01    7.767819e+02    5.526695e-01    8.949351e+07    9.871630e-09    1.881300e-13    8.241765e-09    1.293674e-09    7.300000e-01    5.808950e-01    1.488769e-01
    9.666084e+00    7.743533e+02    6.098985e-01    9.411541e+07    9.969365e-09    2.006577e-13    8.384630e-09    1.312761e-09    7.400000e-01    5.808950e-01    1.554146e-01
    9.308282e+00    7.713816e+02    6.705840e-01    9.876581e+07    1.005857e-08    2.136094e-13    8.515530e-09    1.330050e-09    7.500000e-01    5.808950e-01    1.620325e-01
    8.969423e+00    7.679260e+02    7.347440e-01    1.034403e+08    1.013984e-08    2.269820e-13    8.635315e-09    1.345683e-09    7.600000e-01    5.808950e-01    1.687230e-01
    8.648591e+00    7.640436e+02    8.023920e-01    1.081350e+08    1.021377e-08    2.407736e-13    8.744850e-09    1.359802e-09    7.700000e-01    5.808950e-01    1.754793e-01
    8.344838e+00    7.597857e+02    8.735370e-01    1.128459e+08    1.028096e-08    2.549828e-13    8.844975e-09    1.372542e-09    7.800000e-01    5.808950e-01    1.822951e-01
    8.057254e+00    7.552001e+02    9.481835e-01    1.175698e+08    1.034199e-08    2.696089e-13    8.936505e-09    1.384034e-09    7.900000e-01    5.808950e-01    1.891648e-01
    7.784942e+00    7.503319e+02    1.026332e+00    1.223034e+08    1.039740e-08    2.846521e-13    9.020215e-09    1.394399e-09    8.000000e-01    5.808950e-01    1.960832e-01
    7.527020e+00    7.452197e+02    1.107981e+00    1.270440e+08    1.044772e-08    3.001132e-13    9.096835e-09    1.403750e-09    8.100000e-01    5.808950e-01    2.030457e-01
    7.282651e+00    7.399007e+02    1.193126e+00    1.317889e+08    1.049342e-08    3.159941e-13    9.167040e-09    1.412191e-09    8.200000e-01    5.808950e-01    2.100481e-01
    7.051034e+00    7.344072e+02    1.281761e+00    1.365360e+08    1.053496e-08    3.322971e-13    9.231465e-09    1.419817e-09    8.300000e-01    5.808950e-01    2.170868e-01
    6.831393e+00    7.287674e+02    1.373878e+00    1.412831e+08    1.057273e-08    3.490253e-13    9.290675e-09    1.426717e-09    8.400000e-01    5.808950e-01    2.241584e-01
    6.623008e+00    7.230077e+02    1.469467e+00    1.460283e+08    1.060714e-08    3.661825e-13    9.345205e-09    1.432968e-09    8.500000e-01    5.808950e-01    2.312598e-01
    6.425184e+00    7.171503e+02    1.568520e+00    1.507701e+08    1.063851e-08    3.837732e-13    9.395525e-09    1.438640e-09    8.600000e-01    5.808950e-01    2.383885e-01
    6.237272e+00    7.112152e+02    1.671024e+00    1.555068e+08    1.066715e-08    4.018026e-13    9.442070e-09    1.443798e-09    8.700000e-01    5.808950e-01    2.455419e-01
    6.058665e+00    7.052197e+02    1.776969e+00    1.602374e+08    1.069334e-08    4.202762e-13    9.485230e-09    1.448499e-09    8.800000e-01    5.808950e-01    2.527181e-01
    5.888788e+00    6.991792e+02    1.886342e+00    1.649604e+08    1.071733e-08    4.392004e-13    9.525355e-09    1.452792e-09    8.900000e-01    5.808950e-01    2.599149e-01
    5.727104e+00    6.931069e+02    1.999130e+00    1.696751e+08    1.073935e-08    4.585821e-13    9.562750e-09    1.456723e-09    9.000000e-01    5.808950e-01    2.671308e-01
    5.573110e+00    6.870140e+02    2.115321e+00    1.743805e+08    1.075960e-08    4.784286e-13    9.597705e-09    1.460332e-09    9.100000e-01    5.808950e-01    2.743643e-01
    5.426335e+00    6.809103e+02    2.234904e+00    1.790756e+08    1.077827e-08    4.987479e-13    9.630465e-09    1.463655e-09    9.200000e-01    5.808950e-01    2.816138e-01
    5.286339e+00    6.748041e+02    2.357864e+00    1.837598e+08    1.079551e-08    5.195485e-13    9.661255e-09    1.466723e-09    9.300000e-01    5.808950e-01    2.888784e-01
    5.152713e+00    6.687029e+02    2.484189e+00    1.884326e+08    1.081147e-08    5.408390e-13    9.690275e-09    1.469563e-09    9.400000e-01    5.808950e-01    2.961568e-01
    5.025075e+00    6.626124e+02    2.613866e+00    1.930933e+08    1.082627e-08    5.626290e-13    9.717705e-09    1.472201e-09    9.500000e-01    5.808950e-01    3.034482e-01
    4.903069e+00    6.565386e+02    2.746882e+00    1.977415e+08    1.084002e-08    5.849280e-13    9.743690e-09    1.474658e-09    9.600000e-01    5.808950e-01    3.107516e-01
    4.786364e+00    6.504853e+02    2.883224e+00    2.023768e+08    1.085284e-08    6.077470e-13    9.768385e-09    1.476953e-09    9.700000e-01    5.808950e-01    3.180663e-01
    4.674648e+00    6.444563e+02    3.022880e+00    2.069986e+08    1.086482e-08    6.310960e-13    9.791905e-09    1.479104e-09    9.800000e-01    5.808950e-01    3.253916e-01
    4.567633e+00    6.384549e+02    3.165837e+00    2.116069e+08    1.087603e-08    6.549870e-13    9.814365e-09    1.481125e-09    9.900000e-01    5.808950e-01    3.327269e-01
    4.465049e+00    6.324832e+02    3.312083e+00    2.162011e+08    1.088654e-08    6.794310e-13    9.835865e-09    1.483029e-09    1.000000e+00    5.808950e-01    3.400717e-01
    4.366646e+00    6.265438e+02    3.461606e+00    2.207813e+08    1.089641e-08    7.044405e-13    9.856490e-09    1.484828e-09    1.010000e+00    5.808950e-01    3.474256e-01
    4.272188e+00    6.206381e+02    3.614392e+00    2.253470e+08    1.090571e-08    7.300280e-13    9.876320e-09    1.486533e-09    1.020000e+00    5.808950e-01    3.547880e-01
    4.181457e+00    6.147672e+02    3.770428e+00    2.298979e+08    1.091449e-08    7.562060e-13    9.895425e-09    1.488153e-09    1.030000e+00    5.808950e-01    3.621586e-01
    4.094250e+00    6.089326e+02    3.929705e+00    2.344343e+08    1.092279e-08    7.829885e-13    9.913865e-09    1.489695e-09    1.040000e+00    5.808950e-01    3.695370e-01
    4.010377e+00    6.031349e+02    4.092208e+00    2.389556e+08    1.093064e-08    8.103895e-13    9.931695e-09    1.491167e-09    1.050000e+00    5.808950e-01    3.769231e-01
    3.929657e+00    5.973749e+02    4.257927e+00    2.434619e+08    1.093810e-08    8.384225e-13    9.948965e-09    1.492575e-09    1.060000e+00    5.808950e-01    3.843164e-01
    3.851924e+00    5.916525e+02    4.426848e+00    2.479530e+08    1.094519e-08    8.671030e-13    9.965720e-09    1.493924e-09    1.070000e+00    5.808950e-01    3.917168e-01
    3.777024e+00    5.859683e+02    4.598960e+00    2.524289e+08    1.095193e-08    8.964460e-13    9.982005e-09    1.495221e-09    1.080000e+00    5.808950e-01    3.991241e-01
    3.704809e+00    5.803224e+02    4.774252e+00    2.568892e+08    1.095836e-08    9.264675e-13    9.997845e-09    1.496469e-09    1.090000e+00    5.808950e-01    4.065381e-01
    3.635144e+00    5.747147e+02    4.952710e+00    2.613342e+08    1.096449e-08    9.571835e-13    1.001328e-08    1.497671e-09    1.100000e+00    5.808950e-01    4.139586e-01
    3.567900e+00    5.691453e+02    5.134325e+00    2.657637e+08    1.097035e-08    9.886105e-13    1.002833e-08    1.498833e-09    1.110000e+00    5.808950e-01    4.213855e-01
    3.502959e+00    5.636135e+02    5.319080e+00    2.701774e+08    1.097597e-08    1.020767e-12    1.004304e-08    1.499956e-09    1.120000e+00    5.808950e-01    4.288187e-01
    3.440205e+00    5.581196e+02    5.506970e+00    2.745755e+08    1.098134e-08    1.053668e-12    1.005741e-08    1.501044e-09    1.130000e+00    5.808950e-01    4.362580e-01
    3.379534e+00    5.526631e+02    5.697980e+00    2.789579e+08    1.098650e-08    1.087335e-12    1.007148e-08    1.502099e-09    1.140000e+00    5.808950e-01    4.437034e-01
    3.320847e+00    5.472434e+02    5.892095e+00    2.833245e+08    1.099144e-08    1.121784e-12    1.008525e-08    1.503124e-09    1.150000e+00    5.808950e-01    4.511548e-01
    3.264048e+00    5.418604e+02    6.089310e+00    2.876750e+08    1.099620e-08    1.157037e-12    1.009875e-08    1.504120e-09    1.160000e+00    5.808950e-01    4.586121e-01
    3.209051e+00    5.365136e+02    6.289610e+00    2.920098e+08    1.100077e-08    1.193111e-12    1.011199e-08    1.505089e-09    1.170000e+00    5.808950e-01    4.660753e-01
    3.155775e+00    5.312026e+02    6.492980e+00    2.963285e+08    1.100517e-08    1.230029e-12    1.012500e-08    1.506033e-09    1.180000e+00    5.808950e-01    4.735443e-01
    3.104141e+00    5.259268e+02    6.699410e+00    3.006312e+08    1.100941e-08    1.267812e-12    1.013777e-08    1.506953e-09    1.190000e+00    5.808950e-01    4.810191e-01
    3.054072e+00    5.206859e+02    6.908895e+00    3.049177e+08    1.101350e-08    1.306480e-12    1.015032e-08    1.507851e-09    1.200000e+00    5.808950e-01    4.884997e-01
    3.005501e+00    5.154792e+02    7.121415e+00    3.091880e+08    1.101744e-08    1.346056e-12    1.016268e-08    1.508729e-09    1.210000e+00    5.808950e-01    4.959859e-01
    2.958365e+00    5.103064e+02    7.336960e+00    3.134423e+08    1.102124e-08    1.386564e-12    1.017483e-08    1.509585e-09    1.220000e+00    5.808950e-01    5.034779e-01
    2.912600e+00    5.051669e+02    7.555515e+00    3.176801e+08    1.102491e-08    1.428027e-12    1.018679e-08    1.510425e-09    1.230000e+00    5.808950e-01    5.109756e-01
    2.868146e+00    5.000603e+02    7.777080e+00    3.219017e+08    1.102846e-08    1.470470e-12    1.019858e-08    1.511245e-09    1.240000e+00    5.808950e-01    5.184790e-01
    2.824951e+00    4.949860e+02    8.001630e+00    3.261067e+08    1.103189e-08    1.513918e-12    1.021020e-08    1.512049e-09    1.250000e+00    5.808950e-01    5.259880e-01
    2.782960e+00    4.899437e+02    8.229160e+00    3.302955e+08    1.103520e-08    1.558396e-12    1.022166e-08    1.512837e-09    1.260000e+00    5.808950e-01    5.335028e-01
    2.742125e+00    4.849326e+02    8.459655e+00    3.344675e+08    1.103840e-08    1.603931e-12    1.023296e-08    1.513609e-09    1.270000e+00    5.808950e-01    5.410232e-01
    2.702400e+00    4.799526e+02    8.693105e+00    3.386231e+08    1.104150e-08    1.650551e-12    1.024411e-08    1.514366e-09    1.280000e+00    5.808950e-01    5.485493e-01
    2.663739e+00    4.750029e+02    8.929495e+00    3.427621e+08    1.104450e-08    1.698285e-12    1.025511e-08    1.515109e-09    1.290000e+00    5.808950e-01    5.560811e-01
    2.626100e+00    4.700832e+02    9.168815e+00    3.468842e+08    1.104740e-08    1.747160e-12    1.026598e-08    1.515839e-09    1.300000e+00    5.808950e-01    5.636187e-01
    2.589443e+00    4.651930e+02    9.411055e+00    3.509896e+08    1.105021e-08    1.797207e-12    1.027671e-08    1.516555e-09    1.310000e+00    5.808950e-01    5.711619e-01
    2.553731e+00    4.603319e+02    9.656200e+00    3.550783e+08    1.105293e-08    1.848457e-12    1.028732e-08    1.517259e-09    1.320000e+00    5.808950e-01    5.787110e-01
    2.518928e+00    4.554995e+02    9.904235e+00    3.591499e+08    1.105557e-08    1.900942e-12    1.029780e-08    1.517951e-09    1.330000e+00    5.808950e-01    5.862658e-01
    2.484998e+00    4.506957e+02    1.015515e+01    3.632046e+08    1.105812e-08    1.954695e-12    1.030816e-08    1.518632e-09    1.340000e+00    5.808950e-01    5.938264e-01
    2.451908e+00    4.459191e+02    1.040894e+01    3.672422e+08    1.106060e-08    2.009749e-12    1.031840e-08    1.519301e-09    1.350000e+00    5.808950e-01    6.013928e-01
    2.419630e+00    4.411703e+02    1.066559e+01    3.712629e+08    1.106299e-08    2.066138e-12    1.032854e-08    1.519960e-09    1.360000e+00    5.808950e-01    6.089651e-01
    2.388134e+00    4.364485e+02    1.092507e+01    3.752662e+08    1.106531e-08    2.123901e-12    1.033856e-08    1.520608e-09    1.370000e+00    5.808950e-01    6.165432e-01
