# GF180MCU-D nfet_03v3 gm/ID Processed Lookup Table
# Corner: fs
# Temperature: 25C
# W = 2.0 um
# L = 4 um (4000 nm)
# Columns: gm/id [1/V]  gm/gds [V/V]  id/W [A/m]  ft [Hz]  Cgg/W [F/m]  Cgd/W [F/m]  Cgs/W [F/m]  Cdb/W [F/m]  vgs [V]  vth [V]  vdsat [V]
# vdsat = BSIM saturation voltage (|VDS|_sat, positive); use for headroom / saturation / cascode-bias calculations
#           gm/id          gm/gds            id/W              ft           Cgg/W           Cgd/W           Cgs/W           Cdb/W             vgs             vth           vdsat
    2.711388e+01    6.710153e+02    7.796345e-05    6.457392e+04    5.210095e-09    1.989018e-15    1.915210e-10    4.220487e-11    3.000000e-01    5.792832e-01    3.721813e-02
    2.708024e+01    6.688108e+02    1.022316e-04    8.450766e+04    5.213885e-09    2.266973e-15    2.219992e-10    4.790797e-11    3.100000e-01    5.792832e-01    3.723896e-02
    2.701680e+01    6.663893e+02    1.339884e-04    1.103497e+05    5.220955e-09    2.583641e-15    2.568524e-10    5.437985e-11    3.200000e-01    5.792832e-01    3.726619e-02
    2.692639e+01    6.637494e+02    1.754746e-04    1.437361e+05    5.231745e-09    2.944418e-15    2.966791e-10    6.171945e-11    3.300000e-01    5.792832e-01    3.730170e-02
    2.681091e+01    6.608980e+02    2.295692e-04    1.867058e+05    5.246715e-09    3.355422e-15    3.421452e-10    7.003595e-11    3.400000e-01    5.792832e-01    3.734792e-02
    2.667162e+01    6.578517e+02    2.999573e-04    2.417770e+05    5.266400e-09    3.823575e-15    3.939862e-10    7.944905e-11    3.500000e-01    5.792832e-01    3.740789e-02
    2.650937e+01    6.546435e+02    3.913364e-04    3.120341e+05    5.291365e-09    4.356688e-15    4.530088e-10    9.008890e-11    3.600000e-01    5.792832e-01    3.748549e-02
    2.632485e+01    6.513230e+02    5.096685e-04    4.012166e+05    5.322245e-09    4.963547e-15    5.200915e-10    1.020960e-10    3.700000e-01    5.792832e-01    3.758554e-02
    2.611868e+01    6.479613e+02    6.624860e-04    5.138140e+05    5.359720e-09    5.654010e-15    5.961835e-10    1.156206e-10    3.800000e-01    5.792832e-01    3.771402e-02
    2.589159e+01    6.446544e+02    8.592600e-04    6.551585e+05    5.404520e-09    6.439080e-15    6.822970e-10    1.308213e-10    3.900000e-01    5.792832e-01    3.787828e-02
    2.564454e+01    6.415246e+02    1.111840e-03    8.315163e+05    5.457410e-09    7.331015e-15    7.795040e-10    1.478638e-10    4.000000e-01    5.792832e-01    3.808723e-02
    2.537866e+01    6.387223e+02    1.434980e-03    1.050167e+06    5.519200e-09    8.343385e-15    8.889195e-10    1.669180e-10    4.100000e-01    5.792832e-01    3.835155e-02
    2.509535e+01    6.364231e+02    1.846954e-03    1.319477e+06    5.590720e-09    9.491150e-15    1.011686e-09    1.881549e-10    4.200000e-01    5.792832e-01    3.868381e-02
    2.479605e+01    6.348257e+02    2.370287e-03    1.648946e+06    5.672795e-09    1.079070e-14    1.148946e-09    2.117420e-10    4.300000e-01    5.792832e-01    3.909861e-02
    2.448208e+01    6.341398e+02    3.032589e-03    2.049222e+06    5.766245e-09    1.225991e-14    1.301819e-09    2.378381e-10    4.400000e-01    5.792832e-01    3.961256e-02
    2.415443e+01    6.345765e+02    3.867520e-03    2.532068e+06    5.871840e-09    1.391806e-14    1.471352e-09    2.665865e-10    4.500000e-01    5.792832e-01    4.024415e-02
    2.381334e+01    6.363314e+02    4.915861e-03    3.110238e+06    5.990270e-09    1.578590e-14    1.658483e-09    2.981078e-10    4.600000e-01    5.792832e-01    4.101347e-02
    2.345816e+01    6.395668e+02    6.226655e-03    3.797232e+06    6.122120e-09    1.788546e-14    1.863983e-09    3.324911e-10    4.700000e-01    5.792832e-01    4.194178e-02
    2.308719e+01    6.443939e+02    7.858400e-03    4.606908e+06    6.267810e-09    2.023998e-14    2.088404e-09    3.697854e-10    4.800000e-01    5.792832e-01    4.305089e-02
    2.269774e+01    6.508565e+02    9.880145e-03    5.552898e+06    6.427565e-09    2.287366e-14    2.332012e-09    4.099909e-10    4.900000e-01    5.792832e-01    4.436241e-02
    2.228647e+01    6.589210e+02    1.237243e-02    6.647873e+06    6.601365e-09    2.581141e-14    2.594738e-09    4.530502e-10    5.000000e-01    5.792832e-01    4.589691e-02
    2.184989e+01    6.684742e+02    1.542790e-02    7.902699e+06    6.788920e-09    2.907856e-14    2.876119e-09    4.988418e-10    5.100000e-01    5.792832e-01    4.767309e-02
    2.138498e+01    6.793255e+02    1.915146e-02    9.325601e+06    6.989625e-09    3.270049e-14    3.175259e-09    5.471755e-10    5.200000e-01    5.792832e-01    4.970698e-02
    2.088985e+01    6.912248e+02    2.365988e-02    1.092150e+07    7.202540e-09    3.670216e-14    3.490811e-09    5.977910e-10    5.300000e-01    5.792832e-01    5.201131e-02
    2.036421e+01    7.038777e+02    2.908080e-02    1.269156e+07    7.426410e-09    4.110776e-14    3.820967e-09    6.503590e-10    5.400000e-01    5.792832e-01    5.459506e-02
    1.980956e+01    7.169683e+02    3.555113e-02    1.463320e+07    7.659655e-09    4.594019e-14    4.163488e-09    7.044880e-10    5.500000e-01    5.792832e-01    5.746329e-02
    1.922923e+01    7.301824e+02    4.321500e-02    1.674041e+07    7.900425e-09    5.122070e-14    4.515754e-09    7.597360e-10    5.600000e-01    5.792832e-01    6.061715e-02
    1.862793e+01    7.432247e+02    5.222130e-02    1.900442e+07    8.146625e-09    5.696845e-14    4.874838e-09    8.156215e-10    5.700000e-01    5.792832e-01    6.405418e-02
    1.801143e+01    7.558335e+02    6.272115e-02    2.141452e+07    8.396030e-09    6.320030e-14    5.237610e-09    8.716415e-10    5.800000e-01    5.792832e-01    6.776871e-02
    1.738594e+01    7.677888e+02    7.486540e-02    2.395896e+07    8.646325e-09    6.993040e-14    5.600840e-09    9.272920e-10    5.900000e-01    5.792832e-01    7.175236e-02
    1.675769e+01    7.789158e+02    8.880215e-02    2.662578e+07    8.895195e-09    7.717020e-14    5.961330e-09    9.820815e-10    6.000000e-01    5.792832e-01    7.599459e-02
    1.613249e+01    7.890833e+02    1.046747e-01    2.940331e+07    9.140440e-09    8.492850e-14    6.316020e-09    1.035554e-09    6.100000e-01    5.792832e-01    8.048330e-02
    1.551547e+01    7.982016e+02    1.226200e-01    3.228072e+07    9.380010e-09    9.321120e-14    6.662095e-09    1.087302e-09    6.200000e-01    5.792832e-01    8.520526e-02
    1.491101e+01    8.062168e+02    1.427666e-01    3.524813e+07    9.612090e-09    1.020218e-13    6.997065e-09    1.136972e-09    6.300000e-01    5.792832e-01    9.014663e-02
    1.432256e+01    8.131045e+02    1.652345e-01    3.829666e+07    9.835140e-09    1.113615e-13    7.318835e-09    1.184282e-09    6.400000e-01    5.792832e-01    9.529324e-02
    1.375280e+01    8.188658e+02    1.901335e-01    4.141840e+07    1.004793e-08    1.212295e-13    7.625735e-09    1.229018e-09    6.500000e-01    5.792832e-01    1.006309e-01
    1.320362e+01    8.235208e+02    2.175636e-01    4.460626e+07    1.024952e-08    1.316233e-13    7.916525e-09    1.271034e-09    6.600000e-01    5.792832e-01    1.061459e-01
    1.267628e+01    8.271053e+02    2.476143e-01    4.785387e+07    1.043928e-08    1.425392e-13    8.190400e-09    1.310251e-09    6.700000e-01    5.792832e-01    1.118245e-01
    1.217150e+01    8.296669e+02    2.803651e-01    5.115536e+07    1.061688e-08    1.539723e-13    8.446935e-09    1.346646e-09    6.800000e-01    5.792832e-01    1.176538e-01
    1.168955e+01    8.312614e+02    3.158853e-01    5.450534e+07    1.078222e-08    1.659175e-13    8.686050e-09    1.380250e-09    6.900000e-01    5.792832e-01    1.236216e-01
    1.123036e+01    8.319508e+02    3.542348e-01    5.789882e+07    1.093542e-08    1.783690e-13    8.907985e-09    1.411135e-09    7.000000e-01    5.792832e-01    1.297162e-01
    1.079360e+01    8.318004e+02    3.954648e-01    6.133100e+07    1.107679e-08    1.913213e-13    9.113195e-09    1.439408e-09    7.100000e-01    5.792832e-01    1.359266e-01
    1.037871e+01    8.308772e+02    4.396177e-01    6.479746e+07    1.120678e-08    2.047689e-13    9.302355e-09    1.465198e-09    7.200000e-01    5.792832e-01    1.422427e-01
    9.985030e+00    8.292491e+02    4.867288e-01    6.829404e+07    1.132593e-08    2.187066e-13    9.476260e-09    1.488654e-09    7.300000e-01    5.792832e-01    1.486549e-01
    9.611755e+00    8.269829e+02    5.368260e-01    7.181681e+07    1.143485e-08    2.331301e-13    9.635810e-09    1.509933e-09    7.400000e-01    5.792832e-01    1.551547e-01
    9.258042e+00    8.241422e+02    5.899320e-01    7.536213e+07    1.153421e-08    2.480356e-13    9.781960e-09    1.529199e-09    7.500000e-01    5.792832e-01    1.617338e-01
    8.922977e+00    8.207882e+02    6.460635e-01    7.892656e+07    1.162471e-08    2.634199e-13    9.915685e-09    1.546616e-09    7.600000e-01    5.792832e-01    1.683851e-01
    8.605678e+00    8.169803e+02    7.052315e-01    8.250699e+07    1.170702e-08    2.792809e-13    1.003796e-08    1.562342e-09    7.700000e-01    5.792832e-01    1.751018e-01
    8.305208e+00    8.127714e+02    7.674450e-01    8.610054e+07    1.178181e-08    2.956171e-13    1.014975e-08    1.576533e-09    7.800000e-01    5.792832e-01    1.818778e-01
    8.020664e+00    8.082121e+02    8.327085e-01    8.970458e+07    1.184974e-08    3.124282e-13    1.025197e-08    1.589332e-09    7.900000e-01    5.792832e-01    1.887075e-01
    7.751166e+00    8.033476e+02    9.010225e-01    9.331664e+07    1.191143e-08    3.297145e-13    1.034548e-08    1.600877e-09    8.000000e-01    5.792832e-01    1.955861e-01
    7.495858e+00    7.982210e+02    9.723870e-01    9.693472e+07    1.196744e-08    3.474772e-13    1.043109e-08    1.611296e-09    8.100000e-01    5.792832e-01    2.025089e-01
    7.253909e+00    7.928698e+02    1.046799e+00    1.005568e+08    1.201833e-08    3.657185e-13    1.050959e-08    1.620704e-09    8.200000e-01    5.792832e-01    2.094719e-01
    7.024531e+00    7.873270e+02    1.124253e+00    1.041811e+08    1.206459e-08    3.844412e-13    1.058166e-08    1.629206e-09    8.300000e-01    5.792832e-01    2.164715e-01
    6.806963e+00    7.816235e+02    1.204743e+00    1.078060e+08    1.210669e-08    4.036493e-13    1.064794e-08    1.636902e-09    8.400000e-01    5.792832e-01    2.235044e-01
    6.600501e+00    7.757871e+02    1.288264e+00    1.114303e+08    1.214503e-08    4.233471e-13    1.070902e-08    1.643877e-09    8.500000e-01    5.792832e-01    2.305676e-01
    6.404460e+00    7.698404e+02    1.374804e+00    1.150526e+08    1.218000e-08    4.435399e-13    1.076543e-08    1.650210e-09    8.600000e-01    5.792832e-01    2.376586e-01
    6.218203e+00    7.638047e+02    1.464358e+00    1.186718e+08    1.221194e-08    4.642337e-13    1.081765e-08    1.655973e-09    8.700000e-01    5.792832e-01    2.447750e-01
    6.041131e+00    7.576983e+02    1.556914e+00    1.222869e+08    1.224117e-08    4.854351e-13    1.086610e-08    1.661228e-09    8.800000e-01    5.792832e-01    2.519146e-01
    5.872678e+00    7.515376e+02    1.652465e+00    1.258972e+08    1.226796e-08    5.071515e-13    1.091119e-08    1.666030e-09    8.900000e-01    5.792832e-01    2.590757e-01
    5.712319e+00    7.453364e+02    1.750999e+00    1.295018e+08    1.229257e-08    5.293905e-13    1.095325e-08    1.670430e-09    9.000000e-01    5.792832e-01    2.662565e-01
    5.559555e+00    7.391067e+02    1.852507e+00    1.331000e+08    1.231521e-08    5.521610e-13    1.099259e-08    1.674473e-09    9.100000e-01    5.792832e-01    2.734556e-01
    5.413926e+00    7.328587e+02    1.956978e+00    1.366914e+08    1.233609e-08    5.754720e-13    1.102950e-08    1.678198e-09    9.200000e-01    5.792832e-01    2.806715e-01
    5.275000e+00    7.266019e+02    2.064402e+00    1.402752e+08    1.235538e-08    5.993335e-13    1.106422e-08    1.681640e-09    9.300000e-01    5.792832e-01    2.879033e-01
    5.142370e+00    7.203437e+02    2.174768e+00    1.438511e+08    1.237324e-08    6.237550e-13    1.109697e-08    1.684829e-09    9.400000e-01    5.792832e-01    2.951497e-01
    5.015663e+00    7.140906e+02    2.288067e+00    1.474186e+08    1.238982e-08    6.487480e-13    1.112795e-08    1.687792e-09    9.500000e-01    5.792832e-01    3.024098e-01
    4.894527e+00    7.078486e+02    2.404288e+00    1.509775e+08    1.240525e-08    6.743240e-13    1.115733e-08    1.690555e-09    9.600000e-01    5.792832e-01    3.096828e-01
    4.778634e+00    7.016221e+02    2.523421e+00    1.545273e+08    1.241963e-08    7.004935e-13    1.118526e-08    1.693138e-09    9.700000e-01    5.792832e-01    3.169680e-01
    4.667677e+00    6.954152e+02    2.645455e+00    1.580678e+08    1.243306e-08    7.272705e-13    1.121190e-08    1.695560e-09    9.800000e-01    5.792832e-01    3.242646e-01
    4.561376e+00    6.892316e+02    2.770380e+00    1.615988e+08    1.244564e-08    7.546670e-13    1.123735e-08    1.697837e-09    9.900000e-01    5.792832e-01    3.315722e-01
    4.459459e+00    6.830735e+02    2.898187e+00    1.651200e+08    1.245745e-08    7.826960e-13    1.126172e-08    1.699985e-09    1.000000e+00    5.792832e-01    3.388901e-01
    4.361682e+00    6.769434e+02    3.028864e+00    1.686313e+08    1.246854e-08    8.113720e-13    1.128513e-08    1.702015e-09    1.010000e+00    5.792832e-01    3.462178e-01
    4.267813e+00    6.708434e+02    3.162402e+00    1.721324e+08    1.247901e-08    8.407095e-13    1.130764e-08    1.703940e-09    1.020000e+00    5.792832e-01    3.535551e-01
    4.177638e+00    6.647752e+02    3.298791e+00    1.756233e+08    1.248888e-08    8.707230e-13    1.132934e-08    1.705770e-09    1.030000e+00    5.792832e-01    3.609014e-01
    4.090952e+00    6.587393e+02    3.438022e+00    1.791039e+08    1.249822e-08    9.014275e-13    1.135031e-08    1.707513e-09    1.040000e+00    5.792832e-01    3.682566e-01
    4.007568e+00    6.527371e+02    3.580083e+00    1.825739e+08    1.250706e-08    9.328395e-13    1.137059e-08    1.709178e-09    1.050000e+00    5.792832e-01    3.756202e-01
    3.927310e+00    6.467693e+02    3.724967e+00    1.860333e+08    1.251547e-08    9.649755e-13    1.139024e-08    1.710772e-09    1.060000e+00    5.792832e-01    3.829920e-01
    3.850013e+00    6.408362e+02    3.872662e+00    1.894821e+08    1.252345e-08    9.978515e-13    1.140932e-08    1.712300e-09    1.070000e+00    5.792832e-01    3.903718e-01
    3.775525e+00    6.349386e+02    4.023160e+00    1.929201e+08    1.253104e-08    1.031486e-12    1.142787e-08    1.713769e-09    1.080000e+00    5.792832e-01    3.977594e-01
    3.703700e+00    6.290761e+02    4.176450e+00    1.963472e+08    1.253830e-08    1.065897e-12    1.144592e-08    1.715183e-09    1.090000e+00    5.792832e-01    4.051546e-01
    3.634402e+00    6.232492e+02    4.332523e+00    1.997634e+08    1.254521e-08    1.101102e-12    1.146353e-08    1.716547e-09    1.100000e+00    5.792832e-01    4.125572e-01
    3.567507e+00    6.174578e+02    4.491369e+00    2.031686e+08    1.255183e-08    1.137121e-12    1.148070e-08    1.717865e-09    1.110000e+00    5.792832e-01    4.199672e-01
    3.502894e+00    6.117015e+02    4.652979e+00    2.065628e+08    1.255816e-08    1.173973e-12    1.149747e-08    1.719139e-09    1.120000e+00    5.792832e-01    4.273844e-01
    3.440453e+00    6.059804e+02    4.817343e+00    2.099459e+08    1.256423e-08    1.211679e-12    1.151388e-08    1.720374e-09    1.130000e+00    5.792832e-01    4.348086e-01
    3.380076e+00    6.002941e+02    4.984453e+00    2.133178e+08    1.257005e-08    1.250260e-12    1.152994e-08    1.721572e-09    1.140000e+00    5.792832e-01    4.422398e-01
    3.321671e+00    5.946424e+02    5.154295e+00    2.166785e+08    1.257564e-08    1.289737e-12    1.154567e-08    1.722736e-09    1.150000e+00    5.792832e-01    4.496780e-01
    3.265138e+00    5.890248e+02    5.326865e+00    2.200280e+08    1.258101e-08    1.330131e-12    1.156110e-08    1.723867e-09    1.160000e+00    5.792832e-01    4.571230e-01
    3.210396e+00    5.834410e+02    5.502150e+00    2.233662e+08    1.258618e-08    1.371468e-12    1.157624e-08    1.724968e-09    1.170000e+00    5.792832e-01    4.645748e-01
    3.157358e+00    5.778908e+02    5.680145e+00    2.266929e+08    1.259115e-08    1.413768e-12    1.159110e-08    1.726041e-09    1.180000e+00    5.792832e-01    4.720334e-01
    3.105950e+00    5.723733e+02    5.860835e+00    2.300083e+08    1.259594e-08    1.457057e-12    1.160571e-08    1.727087e-09    1.190000e+00    5.792832e-01    4.794987e-01
    3.056099e+00    5.668883e+02    6.044210e+00    2.333122e+08    1.260056e-08    1.501359e-12    1.162007e-08    1.728109e-09    1.200000e+00    5.792832e-01    4.869706e-01
    3.007736e+00    5.614356e+02    6.230265e+00    2.366046e+08    1.260501e-08    1.546700e-12    1.163420e-08    1.729107e-09    1.210000e+00    5.792832e-01    4.944492e-01
    2.960797e+00    5.560144e+02    6.418985e+00    2.398854e+08    1.260931e-08    1.593107e-12    1.164810e-08    1.730082e-09    1.220000e+00    5.792832e-01    5.019344e-01
    2.915216e+00    5.506243e+02    6.610370e+00    2.431545e+08    1.261346e-08    1.640606e-12    1.166180e-08    1.731036e-09    1.230000e+00    5.792832e-01    5.094262e-01
    2.870943e+00    5.452649e+02    6.804395e+00    2.464120e+08    1.261747e-08    1.689225e-12    1.167530e-08    1.731970e-09    1.240000e+00    5.792832e-01    5.169247e-01
    2.827917e+00    5.399359e+02    7.001065e+00    2.496579e+08    1.262135e-08    1.738995e-12    1.168860e-08    1.732884e-09    1.250000e+00    5.792832e-01    5.244297e-01
    2.786089e+00    5.346364e+02    7.200360e+00    2.528919e+08    1.262509e-08    1.789942e-12    1.170172e-08    1.733781e-09    1.260000e+00    5.792832e-01    5.319414e-01
    2.745407e+00    5.293663e+02    7.402280e+00    2.561141e+08    1.262871e-08    1.842098e-12    1.171466e-08    1.734660e-09    1.270000e+00    5.792832e-01    5.394597e-01
    2.705830e+00    5.241251e+02    7.606805e+00    2.593244e+08    1.263221e-08    1.895495e-12    1.172743e-08    1.735522e-09    1.280000e+00    5.792832e-01    5.469845e-01
    2.667309e+00    5.189121e+02    7.813930e+00    2.625227e+08    1.263560e-08    1.950164e-12    1.174004e-08    1.736367e-09    1.290000e+00    5.792832e-01    5.545160e-01
    2.629804e+00    5.137271e+02    8.023645e+00    2.657090e+08    1.263889e-08    2.006140e-12    1.175250e-08    1.737199e-09    1.300000e+00    5.792832e-01    5.620542e-01
    2.593276e+00    5.085698e+02    8.235940e+00    2.688833e+08    1.264207e-08    2.063455e-12    1.176480e-08    1.738015e-09    1.310000e+00    5.792832e-01    5.695989e-01
    2.557687e+00    5.034395e+02    8.450800e+00    2.720455e+08    1.264514e-08    2.122146e-12    1.177695e-08    1.738816e-09    1.320000e+00    5.792832e-01    5.771504e-01
    2.523000e+00    4.983358e+02    8.668225e+00    2.751955e+08    1.264813e-08    2.182249e-12    1.178897e-08    1.739605e-09    1.330000e+00    5.792832e-01    5.847085e-01
    2.489181e+00    4.932584e+02    8.888200e+00    2.783332e+08    1.265102e-08    2.243801e-12    1.180085e-08    1.740379e-09    1.340000e+00    5.792832e-01    5.922733e-01
    2.456200e+00    4.882070e+02    9.110710e+00    2.814588e+08    1.265381e-08    2.306841e-12    1.181260e-08    1.741143e-09    1.350000e+00    5.792832e-01    5.998449e-01
    2.424024e+00    4.831810e+02    9.335750e+00    2.845719e+08    1.265652e-08    2.371408e-12    1.182423e-08    1.741893e-09    1.360000e+00    5.792832e-01    6.074232e-01
    2.392626e+00    4.781801e+02    9.563305e+00    2.876725e+08    1.265915e-08    2.437543e-12    1.183573e-08    1.742632e-09    1.370000e+00    5.792832e-01    6.150083e-01
    2.361974e+00    4.732041e+02    9.793375e+00    2.907608e+08    1.266170e-08    2.505289e-12    1.184711e-08    1.743359e-09    1.380000e+00    5.792832e-01    6.226001e-01
