# GF180MCU-D nfet_03v3 gm/ID Processed Lookup Table
# Corner: fs
# Temperature: 25C
# W = 2.0 um
# L = 5.5 um (5500 nm)
# Columns: gm/id [1/V]  gm/gds [V/V]  id/W [A/m]  ft [Hz]  Cgg/W [F/m]  Cgd/W [F/m]  Cgs/W [F/m]  Cdb/W [F/m]  vgs [V]  vth [V]  vdsat [V]
# vdsat = BSIM saturation voltage (|VDS|_sat, positive); use for headroom / saturation / cascode-bias calculations
#           gm/id          gm/gds            id/W              ft           Cgg/W           Cgd/W           Cgs/W           Cdb/W             vgs             vth           vdsat
    2.699470e+01    7.533494e+02    6.166565e-05    3.681961e+04    7.195530e-09    2.960489e-15    2.884424e-10    6.293840e-11    3.000000e-01    5.761861e-01    3.652558e-02
    2.697360e+01    7.507644e+02    8.076970e-05    4.813707e+04    7.203240e-09    3.373289e-15    3.338425e-10    7.142620e-11    3.100000e-01    5.761861e-01    3.654834e-02
    2.691787e+01    7.479334e+02    1.057512e-04    6.278584e+04    7.215800e-09    3.843478e-15    3.857264e-10    8.105245e-11    3.200000e-01    5.761861e-01    3.657806e-02
    2.683135e+01    7.448584e+02    1.383604e-04    8.167825e+04    7.233825e-09    4.379015e-15    4.449679e-10    9.196145e-11    3.300000e-01    5.761861e-01    3.661680e-02
    2.671668e+01    7.415515e+02    1.808427e-04    1.059464e+05    7.258005e-09    4.988912e-15    5.125350e-10    1.043118e-10    3.400000e-01    5.761861e-01    3.666715e-02
    2.657582e+01    7.380399e+02    2.360665e-04    1.369832e+05    7.289100e-09    5.683350e-15    5.894925e-10    1.182763e-10    3.500000e-01    5.761861e-01    3.673240e-02
    2.641016e+01    7.343673e+02    3.076818e-04    1.764864e+05    7.327935e-09    6.473785e-15    6.770025e-10    1.340425e-10    3.600000e-01    5.761861e-01    3.681671e-02
    2.622084e+01    7.306004e+02    4.003114e-04    2.265050e+05    7.375420e-09    7.373090e-15    7.763255e-10    1.518113e-10    3.700000e-01    5.761861e-01    3.692522e-02
    2.600888e+01    7.268309e+02    5.197835e-04    2.894866e+05    7.432515e-09    8.395660e-15    8.888130e-10    1.717961e-10    3.800000e-01    5.761861e-01    3.706431e-02
    2.577541e+01    7.231797e+02    6.734095e-04    3.683228e+05    7.500260e-09    9.557540e-15    1.015900e-09    1.942211e-10    3.900000e-01    5.761861e-01    3.724176e-02
    2.552169e+01    7.197993e+02    8.703170e-04    4.663945e+05    7.579730e-09    1.087654e-14    1.159090e-09    2.193176e-10    4.000000e-01    5.761861e-01    3.746695e-02
    2.524916e+01    7.168726e+02    1.121845e-03    5.876088e+05    7.672050e-09    1.237230e-14    1.319936e-09    2.473205e-10    4.100000e-01    5.761861e-01    3.775104e-02
    2.495940e+01    7.146101e+02    1.442003e-03    7.364313e+05    7.778360e-09    1.406643e-14    1.500006e-09    2.784629e-10    4.200000e-01    5.761861e-01    3.810712e-02
    2.465395e+01    7.132443e+02    1.848019e-03    9.179053e+05    7.899785e-09    1.598252e-14    1.700852e-09    3.129690e-10    4.300000e-01    5.761861e-01    3.855022e-02
    2.433414e+01    7.130161e+02    2.360960e-03    1.137650e+06    8.037410e-09    1.814613e-14    1.923954e-09    3.510459e-10    4.400000e-01    5.761861e-01    3.909732e-02
    2.400076e+01    7.141600e+02    3.006439e-03    1.401828e+06    8.192240e-09    2.058480e-14    2.170670e-09    3.928738e-10    4.500000e-01    5.761861e-01    3.976709e-02
    2.365379e+01    7.168873e+02    3.815389e-03    1.717066e+06    8.365130e-09    2.332795e-14    2.442163e-09    4.385953e-10    4.600000e-01    5.761861e-01    4.057965e-02
    2.329226e+01    7.213632e+02    4.824889e-03    2.090305e+06    8.556760e-09    2.640666e-14    2.739324e-09    4.883028e-10    4.700000e-01    5.761861e-01    4.155597e-02
    2.291411e+01    7.276875e+02    6.078975e-03    2.528567e+06    8.767565e-09    2.985352e-14    3.062700e-09    5.420270e-10    4.800000e-01    5.761861e-01    4.271731e-02
    2.251641e+01    7.358807e+02    7.629395e-03    3.038641e+06    8.997670e-09    3.370224e-14    3.412402e-09    5.997250e-10    4.900000e-01    5.761861e-01    4.408437e-02
    2.209579e+01    7.458745e+02    9.536170e-03    3.626689e+06    9.246840e-09    3.798726e-14    3.788039e-09    6.612685e-10    5.000000e-01    5.761861e-01    4.567655e-02
    2.164895e+01    7.575120e+02    1.186793e-02    4.297827e+06    9.514440e-09    4.274335e-14    4.188653e-09    7.264390e-10    5.100000e-01    5.761861e-01    4.751107e-02
    2.117334e+01    7.705580e+02    1.470192e-02    5.055734e+06    9.799395e-09    4.800496e-14    4.612671e-09    7.949210e-10    5.200000e-01    5.761861e-01    4.960234e-02
    2.066771e+01    7.847152e+02    1.812351e-02    5.902363e+06    1.010017e-08    5.380575e-14    5.057895e-09    8.663025e-10    5.300000e-01    5.761861e-01    5.196138e-02
    2.013253e+01    7.996479e+02    2.222541e-02    6.837808e+06    1.041481e-08    6.017785e-14    5.521515e-09    9.400830e-10    5.400000e-01    5.761861e-01    5.459550e-02
    1.957002e+01    8.150054e+02    2.710646e-02    7.860358e+06    1.074093e-08    6.715140e-14    6.000170e-09    1.015684e-09    5.500000e-01    5.761861e-01    5.750826e-02
    1.898407e+01    8.304453e+02    3.287003e-02    8.966730e+06    1.107581e-08    7.475400e-14    6.490025e-09    1.092464e-09    5.600000e-01    5.761861e-01    6.069952e-02
    1.837982e+01    8.456533e+02    3.962240e-02    1.015243e+07    1.141648e-08    8.301015e-14    6.986900e-09    1.169745e-09    5.700000e-01    5.761861e-01    6.416583e-02
    1.776312e+01    8.603527e+02    4.747096e-02    1.141215e+07    1.175980e-08    9.194090e-14    7.486420e-09    1.246830e-09    5.800000e-01    5.761861e-01    6.790083e-02
    1.714015e+01    8.743133e+02    5.652245e-02    1.274021e+07    1.210261e-08    1.015637e-13    7.984165e-09    1.323033e-09    5.900000e-01    5.761861e-01    7.189579e-02
    1.651684e+01    8.873543e+02    6.688145e-02    1.413088e+07    1.244181e-08    1.118920e-13    8.475840e-09    1.397703e-09    6.000000e-01    5.761861e-01    7.614011e-02
    1.589867e+01    8.993412e+02    7.864890e-02    1.557866e+07    1.277449e-08    1.229359e-13    8.957420e-09    1.470246e-09    6.100000e-01    5.761861e-01    8.062183e-02
    1.529036e+01    9.101809e+02    9.192100e-02    1.707841e+07    1.309801e-08    1.347016e-13    9.425290e-09    1.540142e-09    6.200000e-01    5.761861e-01    8.532810e-02
    1.469583e+01    9.198175e+02    1.067883e-01    1.862543e+07    1.341009e-08    1.471920e-13    9.876315e-09    1.606957e-09    6.300000e-01    5.761861e-01    9.024556e-02
    1.411814e+01    9.282247e+02    1.233349e-01    2.021542e+07    1.370884e-08    1.604074e-13    1.030794e-08    1.670353e-09    6.400000e-01    5.761861e-01    9.536065e-02
    1.355961e+01    9.354031e+02    1.416382e-01    2.184455e+07    1.399280e-08    1.743453e-13    1.071820e-08    1.730086e-09    6.500000e-01    5.761861e-01    1.006599e-01
    1.302184e+01    9.413725e+02    1.617684e-01    2.350926e+07    1.426090e-08    1.890014e-13    1.110571e-08    1.786004e-09    6.600000e-01    5.761861e-01    1.061300e-01
    1.250586e+01    9.461695e+02    1.837885e-01    2.520629e+07    1.451253e-08    2.043697e-13    1.146964e-08    1.838044e-09    6.700000e-01    5.761861e-01    1.117583e-01
    1.201220e+01    9.498428e+02    2.077546e-01    2.693261e+07    1.474738e-08    2.204432e-13    1.180968e-08    1.886212e-09    6.800000e-01    5.761861e-01    1.175323e-01
    1.154101e+01    9.524508e+02    2.337157e-01    2.868539e+07    1.496549e-08    2.372145e-13    1.212596e-08    1.930583e-09    6.900000e-01    5.761861e-01    1.234404e-01
    1.109212e+01    9.540579e+02    2.617141e-01    3.046193e+07    1.516716e-08    2.546758e-13    1.241896e-08    1.971282e-09    7.000000e-01    5.761861e-01    1.294715e-01
    1.066514e+01    9.547335e+02    2.917861e-01    3.225968e+07    1.535294e-08    2.728193e-13    1.268949e-08    2.008473e-09    7.100000e-01    5.761861e-01    1.356153e-01
    1.025951e+01    9.545488e+02    3.239622e-01    3.407627e+07    1.552347e-08    2.916380e-13    1.293854e-08    2.042349e-09    7.200000e-01    5.761861e-01    1.418621e-01
    9.874516e+00    9.535759e+02    3.582676e-01    3.590945e+07    1.567959e-08    3.111253e-13    1.316731e-08    2.073122e-09    7.300000e-01    5.761861e-01    1.482029e-01
    9.509381e+00    9.518859e+02    3.947227e-01    3.775707e+07    1.582218e-08    3.312755e-13    1.337706e-08    2.101015e-09    7.400000e-01    5.761861e-01    1.546293e-01
    9.163265e+00    9.495482e+02    4.333438e-01    3.961720e+07    1.595214e-08    3.520839e-13    1.356911e-08    2.126251e-09    7.500000e-01    5.761861e-01    1.611338e-01
    8.835292e+00    9.466290e+02    4.741432e-01    4.148803e+07    1.607044e-08    3.735470e-13    1.374481e-08    2.149053e-09    7.600000e-01    5.761861e-01    1.677093e-01
    8.524576e+00    9.431912e+02    5.171300e-01    4.336784e+07    1.617800e-08    3.956621e-13    1.390549e-08    2.169637e-09    7.700000e-01    5.761861e-01    1.743495e-01
    8.230222e+00    9.392938e+02    5.623110e-01    4.525516e+07    1.627572e-08    4.184282e-13    1.405243e-08    2.188210e-09    7.800000e-01    5.761861e-01    1.810486e-01
    7.951356e+00    9.349909e+02    6.096900e-01    4.714857e+07    1.636447e-08    4.418450e-13    1.418684e-08    2.204964e-09    7.900000e-01    5.761861e-01    1.878012e-01
    7.687120e+00    9.303335e+02    6.592690e-01    4.904679e+07    1.644508e-08    4.659139e-13    1.430990e-08    2.220082e-09    8.000000e-01    5.761861e-01    1.946026e-01
    7.436697e+00    9.253673e+02    7.110475e-01    5.094878e+07    1.651829e-08    4.906370e-13    1.442267e-08    2.233729e-09    8.100000e-01    5.761861e-01    2.014485e-01
    7.199275e+00    9.201343e+02    7.650250e-01    5.285345e+07    1.658484e-08    5.160175e-13    1.452616e-08    2.246060e-09    8.200000e-01    5.761861e-01    2.083351e-01
    6.974089e+00    9.146708e+02    8.211990e-01    5.475991e+07    1.664536e-08    5.420610e-13    1.462129e-08    2.257213e-09    8.300000e-01    5.761861e-01    2.152587e-01
    6.760414e+00    9.090100e+02    8.795660e-01    5.666738e+07    1.670047e-08    5.687720e-13    1.470888e-08    2.267315e-09    8.400000e-01    5.761861e-01    2.222163e-01
    6.557558e+00    9.031842e+02    9.401220e-01    5.857515e+07    1.675071e-08    5.961575e-13    1.478971e-08    2.276481e-09    8.500000e-01    5.761861e-01    2.292051e-01
    6.364861e+00    8.972170e+02    1.002863e+00    6.048255e+07    1.679656e-08    6.242255e-13    1.486447e-08    2.284812e-09    8.600000e-01    5.761861e-01    2.362226e-01
    6.181711e+00    8.911336e+02    1.067782e+00    6.238908e+07    1.683848e-08    6.529840e-13    1.493378e-08    2.292401e-09    8.700000e-01    5.761861e-01    2.432665e-01
    6.007521e+00    8.849531e+02    1.134875e+00    6.429414e+07    1.687688e-08    6.824430e-13    1.499820e-08    2.299329e-09    8.800000e-01    5.761861e-01    2.503348e-01
    5.841751e+00    8.786949e+02    1.204136e+00    6.619741e+07    1.691210e-08    7.126130e-13    1.505824e-08    2.305670e-09    8.900000e-01    5.761861e-01    2.574257e-01
    5.683885e+00    8.723739e+02    1.275558e+00    6.809845e+07    1.694448e-08    7.435050e-13    1.511433e-08    2.311488e-09    9.000000e-01    5.761861e-01    2.645375e-01
    5.533441e+00    8.660039e+02    1.349136e+00    6.999692e+07    1.697431e-08    7.751310e-13    1.516690e-08    2.316840e-09    9.100000e-01    5.761861e-01    2.716690e-01
    5.389978e+00    8.595976e+02    1.424863e+00    7.189258e+07    1.700185e-08    8.075040e-13    1.521630e-08    2.321779e-09    9.200000e-01    5.761861e-01    2.788187e-01
    5.253064e+00    8.531635e+02    1.502734e+00    7.378507e+07    1.702732e-08    8.406375e-13    1.526283e-08    2.326348e-09    9.300000e-01    5.761861e-01    2.859855e-01
    5.122316e+00    8.467118e+02    1.582740e+00    7.567421e+07    1.705094e-08    8.745460e-13    1.530681e-08    2.330588e-09    9.400000e-01    5.761861e-01    2.931685e-01
    4.997369e+00    8.402501e+02    1.664877e+00    7.755984e+07    1.707288e-08    9.092450e-13    1.534847e-08    2.334535e-09    9.500000e-01    5.761861e-01    3.003667e-01
    4.877874e+00    8.337841e+02    1.749138e+00    7.944172e+07    1.709331e-08    9.447495e-13    1.538805e-08    2.338219e-09    9.600000e-01    5.761861e-01    3.075792e-01
    4.763520e+00    8.273201e+02    1.835516e+00    8.131972e+07    1.711238e-08    9.810760e-13    1.542574e-08    2.341668e-09    9.700000e-01    5.761861e-01    3.148055e-01
    4.654003e+00    8.208622e+02    1.924006e+00    8.319367e+07    1.713022e-08    1.018242e-12    1.546172e-08    2.344907e-09    9.800000e-01    5.761861e-01    3.220448e-01
    4.549050e+00    8.144148e+02    2.014601e+00    8.506350e+07    1.714694e-08    1.056267e-12    1.549616e-08    2.347956e-09    9.900000e-01    5.761861e-01    3.292965e-01
    4.448401e+00    8.079813e+02    2.107295e+00    8.692909e+07    1.716264e-08    1.095167e-12    1.552918e-08    2.350836e-09    1.000000e+00    5.761861e-01    3.365602e-01
    4.351814e+00    8.015646e+02    2.202081e+00    8.879034e+07    1.717742e-08    1.134962e-12    1.556094e-08    2.353562e-09    1.010000e+00    5.761861e-01    3.438354e-01
    4.259064e+00    7.951668e+02    2.298954e+00    9.064717e+07    1.719136e-08    1.175673e-12    1.559152e-08    2.356150e-09    1.020000e+00    5.761861e-01    3.511217e-01
    4.169939e+00    7.887898e+02    2.397906e+00    9.249949e+07    1.720453e-08    1.217320e-12    1.562104e-08    2.358612e-09    1.030000e+00    5.761861e-01    3.584188e-01
    4.084244e+00    7.824351e+02    2.498934e+00    9.434724e+07    1.721699e-08    1.259923e-12    1.564958e-08    2.360962e-09    1.040000e+00    5.761861e-01    3.657262e-01
    4.001794e+00    7.761040e+02    2.602030e+00    9.619038e+07    1.722882e-08    1.303506e-12    1.567723e-08    2.363207e-09    1.050000e+00    5.761861e-01    3.730438e-01
    3.922416e+00    7.697976e+02    2.707188e+00    9.802880e+07    1.724004e-08    1.348092e-12    1.570405e-08    2.365359e-09    1.060000e+00    5.761861e-01    3.803713e-01
    3.845951e+00    7.635166e+02    2.814402e+00    9.986253e+07    1.725073e-08    1.393702e-12    1.573010e-08    2.367423e-09    1.070000e+00    5.761861e-01    3.877084e-01
    3.772246e+00    7.572615e+02    2.923667e+00    1.016915e+08    1.726090e-08    1.440363e-12    1.575546e-08    2.369411e-09    1.080000e+00    5.761861e-01    3.950550e-01
    3.701163e+00    7.510329e+02    3.034975e+00    1.035156e+08    1.727061e-08    1.488098e-12    1.578016e-08    2.371325e-09    1.090000e+00    5.761861e-01    4.024109e-01
    3.632567e+00    7.448307e+02    3.148323e+00    1.053349e+08    1.727988e-08    1.536933e-12    1.580426e-08    2.373172e-09    1.100000e+00    5.761861e-01    4.097760e-01
    3.566336e+00    7.386553e+02    3.263703e+00    1.071492e+08    1.728876e-08    1.586896e-12    1.582778e-08    2.374958e-09    1.110000e+00    5.761861e-01    4.171500e-01
    3.502351e+00    7.325065e+02    3.381110e+00    1.089587e+08    1.729726e-08    1.638012e-12    1.585079e-08    2.376687e-09    1.120000e+00    5.761861e-01    4.245330e-01
    3.440505e+00    7.263846e+02    3.500538e+00    1.107632e+08    1.730540e-08    1.690311e-12    1.587330e-08    2.378363e-09    1.130000e+00    5.761861e-01    4.319247e-01
    3.380695e+00    7.202889e+02    3.621981e+00    1.125627e+08    1.731321e-08    1.743820e-12    1.589535e-08    2.379990e-09    1.140000e+00    5.761861e-01    4.393251e-01
    3.322824e+00    7.142197e+02    3.745432e+00    1.143571e+08    1.732073e-08    1.798570e-12    1.591697e-08    2.381572e-09    1.150000e+00    5.761861e-01    4.467342e-01
    3.266802e+00    7.081767e+02    3.870887e+00    1.161466e+08    1.732794e-08    1.854592e-12    1.593817e-08    2.383109e-09    1.160000e+00    5.761861e-01    4.541518e-01
    3.212542e+00    7.021592e+02    3.998339e+00    1.179308e+08    1.733489e-08    1.911918e-12    1.595899e-08    2.384608e-09    1.170000e+00    5.761861e-01    4.615779e-01
    3.159965e+00    6.961673e+02    4.127782e+00    1.197100e+08    1.734158e-08    1.970578e-12    1.597944e-08    2.386068e-09    1.180000e+00    5.761861e-01    4.690125e-01
    3.108996e+00    6.902006e+02    4.259209e+00    1.214841e+08    1.734802e-08    2.030608e-12    1.599956e-08    2.387492e-09    1.190000e+00    5.761861e-01    4.764555e-01
    3.059561e+00    6.842587e+02    4.392617e+00    1.232529e+08    1.735423e-08    2.092041e-12    1.601934e-08    2.388883e-09    1.200000e+00    5.761861e-01    4.839068e-01
    3.011594e+00    6.783409e+02    4.527997e+00    1.250165e+08    1.736023e-08    2.154912e-12    1.603881e-08    2.390243e-09    1.210000e+00    5.761861e-01    4.913666e-01
    2.965031e+00    6.724470e+02    4.665345e+00    1.267748e+08    1.736601e-08    2.219260e-12    1.605798e-08    2.391572e-09    1.220000e+00    5.761861e-01    4.988346e-01
    2.919813e+00    6.665768e+02    4.804653e+00    1.285279e+08    1.737160e-08    2.285119e-12    1.607688e-08    2.392873e-09    1.230000e+00    5.761861e-01    5.063110e-01
    2.875881e+00    6.607297e+02    4.945916e+00    1.302756e+08    1.737699e-08    2.352530e-12    1.609549e-08    2.394146e-09    1.240000e+00    5.761861e-01    5.137958e-01
    2.833181e+00    6.549052e+02    5.089130e+00    1.320179e+08    1.738221e-08    2.421531e-12    1.611386e-08    2.395393e-09    1.250000e+00    5.761861e-01    5.212888e-01
    2.791667e+00    6.491029e+02    5.234280e+00    1.337549e+08    1.738726e-08    2.492166e-12    1.613197e-08    2.396617e-09    1.260000e+00    5.761861e-01    5.287901e-01
    2.751283e+00    6.433227e+02    5.381375e+00    1.354864e+08    1.739214e-08    2.564473e-12    1.614984e-08    2.397816e-09    1.270000e+00    5.761861e-01    5.362998e-01
    2.711989e+00    6.375637e+02    5.530395e+00    1.372124e+08    1.739686e-08    2.638499e-12    1.616749e-08    2.398993e-09    1.280000e+00    5.761861e-01    5.438177e-01
    2.673740e+00    6.318259e+02    5.681340e+00    1.389329e+08    1.740143e-08    2.714287e-12    1.618492e-08    2.400148e-09    1.290000e+00    5.761861e-01    5.513440e-01
    2.636495e+00    6.261085e+02    5.834200e+00    1.406479e+08    1.740585e-08    2.791882e-12    1.620214e-08    2.401283e-09    1.300000e+00    5.761861e-01    5.588786e-01
    2.600215e+00    6.204117e+02    5.988975e+00    1.423573e+08    1.741013e-08    2.871333e-12    1.621915e-08    2.402397e-09    1.310000e+00    5.761861e-01    5.664216e-01
    2.564863e+00    6.147347e+02    6.145650e+00    1.440611e+08    1.741427e-08    2.952688e-12    1.623596e-08    2.403493e-09    1.320000e+00    5.761861e-01    5.739729e-01
    2.530402e+00    6.090768e+02    6.304225e+00    1.457592e+08    1.741829e-08    3.035998e-12    1.625259e-08    2.404570e-09    1.330000e+00    5.761861e-01    5.815326e-01
    2.496800e+00    6.034384e+02    6.464695e+00    1.474516e+08    1.742218e-08    3.121314e-12    1.626904e-08    2.405630e-09    1.340000e+00    5.761861e-01    5.891007e-01
    2.464027e+00    5.978189e+02    6.627045e+00    1.491383e+08    1.742595e-08    3.208689e-12    1.628531e-08    2.406672e-09    1.350000e+00    5.761861e-01    5.966773e-01
    2.432050e+00    5.922175e+02    6.791275e+00    1.508192e+08    1.742960e-08    3.298180e-12    1.630141e-08    2.407698e-09    1.360000e+00    5.761861e-01    6.042622e-01
    2.400842e+00    5.866343e+02    6.957375e+00    1.524942e+08    1.743314e-08    3.389841e-12    1.631734e-08    2.408708e-09    1.370000e+00    5.761861e-01    6.118557e-01
    2.370372e+00    5.810688e+02    7.125345e+00    1.541634e+08    1.743657e-08    3.483731e-12    1.633311e-08    2.409703e-09    1.380000e+00    5.761861e-01    6.194576e-01
