# GF180MCU-D nfet_03v3 gm/ID Processed Lookup Table
# Corner: fs
# Temperature: 25C
# W = 2.0 um
# L = 3 um (3000 nm)
# Columns: gm/id [1/V]  gm/gds [V/V]  id/W [A/m]  ft [Hz]  Cgg/W [F/m]  Cgd/W [F/m]  Cgs/W [F/m]  Cdb/W [F/m]  vgs [V]  vth [V]  vdsat [V]
# vdsat = BSIM saturation voltage (|VDS|_sat, positive); use for headroom / saturation / cascode-bias calculations
#           gm/id          gm/gds            id/W              ft           Cgg/W           Cgd/W           Cgs/W           Cdb/W             vgs             vth           vdsat
    2.722127e+01    5.948931e+02    7.159995e-05    7.978413e+04    3.887986e-09    1.190493e-15    1.100862e-10    2.524629e-11    2.900000e-01    5.830328e-01    3.806142e-02
    2.721188e+01    5.932273e+02    9.399970e-05    1.047273e+05    3.887274e-09    1.357434e-15    1.281670e-10    2.866411e-11    3.000000e-01    5.830328e-01    3.807569e-02
    2.717295e+01    5.913818e+02    1.233769e-04    1.372151e+05    3.888561e-09    1.547656e-15    1.488646e-10    3.254606e-11    3.100000e-01    5.830328e-01    3.809439e-02
    2.710768e+01    5.893480e+02    1.618505e-04    1.794080e+05    3.892107e-09    1.764425e-15    1.725490e-10    3.695401e-11    3.200000e-01    5.830328e-01    3.811885e-02
    2.701825e+01    5.871216e+02    2.121572e-04    2.340292e+05    3.898209e-09    2.011463e-15    1.996359e-10    4.195686e-11    3.300000e-01    5.830328e-01    3.815080e-02
    2.690601e+01    5.847045e+02    2.778197e-04    3.044860e+05    3.907196e-09    2.292991e-15    2.305899e-10    4.763097e-11    3.400000e-01    5.830328e-01    3.819242e-02
    2.677182e+01    5.821070e+02    3.633566e-04    3.950095e+05    3.919435e-09    2.613800e-15    2.659264e-10    5.406045e-11    3.500000e-01    5.830328e-01    3.824651e-02
    2.661615e+01    5.793506e+02    4.745407e-04    5.108076e+05    3.935333e-09    2.979304e-15    3.062141e-10    6.133725e-11    3.600000e-01    5.830328e-01    3.831661e-02
    2.643932e+01    5.764704e+02    6.187165e-04    6.582319e+05    3.955335e-09    3.395614e-15    3.520759e-10    6.956140e-11    3.700000e-01    5.830328e-01    3.840716e-02
    2.624163e+01    5.735186e+02    8.051865e-04    8.449530e+05    3.979926e-09    3.869598e-15    4.041887e-10    7.884040e-11    3.800000e-01    5.830328e-01    3.852370e-02
    2.602348e+01    5.705678e+02    1.045679e-03    1.080139e+06    4.009630e-09    4.408954e-15    4.632811e-10    8.928895e-11    3.900000e-01    5.830328e-01    3.867306e-02
    2.578550e+01    5.677132e+02    1.354906e-03    1.374630e+06    4.045006e-09    5.022275e-15    5.301300e-10    1.010279e-10    4.000000e-01    5.830328e-01    3.886358e-02
    2.552859e+01    5.650743e+02    1.751238e-03    1.741105e+06    4.086645e-09    5.719115e-15    6.055520e-10    1.141827e-10    4.100000e-01    5.830328e-01    3.910531e-02
    2.525390e+01    5.627944e+02    2.257491e-03    2.194230e+06    4.135161e-09    6.510045e-15    6.903960e-10    1.288814e-10    4.200000e-01    5.830328e-01    3.941022e-02
    2.496273e+01    5.610364e+02    2.901868e-03    2.750766e+06    4.191178e-09    7.406705e-15    7.855240e-10    1.452520e-10    4.300000e-01    5.830328e-01    3.979231e-02
    2.465644e+01    5.599815e+02    3.719047e-03    3.429646e+06    4.255326e-09    8.421820e-15    8.917955e-10    1.634189e-10    4.400000e-01    5.830328e-01    4.026766e-02
    2.433611e+01    5.598144e+02    4.751432e-03    4.251943e+06    4.328210e-09    9.569240e-15    1.010039e-09    1.834982e-10    4.500000e-01    5.830328e-01    4.085442e-02
    2.400230e+01    5.607143e+02    6.050575e-03    5.240731e+06    4.410397e-09    1.086391e-14    1.141023e-09    2.055931e-10    4.600000e-01    5.830328e-01    4.157254e-02
    2.365477e+01    5.628392e+02    7.678735e-03    6.420748e+06    4.502388e-09    1.232183e-14    1.285422e-09    2.297875e-10    4.700000e-01    5.830328e-01    4.244344e-02
    2.329226e+01    5.663081e+02    9.710495e-03    7.817761e+06    4.604587e-09    1.395996e-14    1.443769e-09    2.561401e-10    4.800000e-01    5.830328e-01    4.348946e-02
    2.291246e+01    5.711874e+02    1.223439e-02    9.457648e+06    4.717271e-09    1.579614e-14    1.616420e-09    2.846769e-10    4.900000e-01    5.830328e-01    4.473314e-02
    2.251221e+01    5.774780e+02    1.535431e-02    1.136510e+07    4.840555e-09    1.784889e-14    1.803502e-09    3.153852e-10    5.000000e-01    5.830328e-01    4.619638e-02
    2.208792e+01    5.851099e+02    1.919062e-02    1.356207e+07    4.974367e-09    2.013719e-14    2.004873e-09    3.482074e-10    5.100000e-01    5.830328e-01    4.789956e-02
    2.163613e+01    5.939409e+02    2.388068e-02    1.606613e+07    5.118410e-09    2.268027e-14    2.220084e-09    3.830362e-10    5.200000e-01    5.830328e-01    4.986069e-02
    2.115430e+01    6.037699e+02    2.957859e-02    1.888898e+07    5.272150e-09    2.549726e-14    2.448355e-09    4.197123e-10    5.300000e-01    5.830328e-01    5.209459e-02
    2.064119e+01    6.143449e+02    3.645422e-02    2.203529e+07    5.434805e-09    2.860694e-14    2.688560e-09    4.580229e-10    5.400000e-01    5.830328e-01    5.461240e-02
    2.009742e+01    6.253894e+02    4.469127e-02    2.550238e+07    5.605345e-09    3.202734e-14    2.939227e-09    4.977057e-10    5.500000e-01    5.830328e-01    5.742118e-02
    1.952544e+01    6.366170e+02    5.448455e-02    2.928049e+07    5.782505e-09    3.577544e-14    3.198572e-09    5.384530e-10    5.600000e-01    5.830328e-01    6.052386e-02
    1.892944e+01    6.477528e+02    6.603675e-02    3.335381e+07    5.964830e-09    3.986687e-14    3.464539e-09    5.799225e-10    5.700000e-01    5.830328e-01    6.391940e-02
    1.831481e+01    6.585482e+02    7.955495e-02    3.770208e+07    6.150700e-09    4.431559e-14    3.734863e-09    6.217450e-10    5.800000e-01    5.830328e-01    6.760314e-02
    1.768778e+01    6.687904e+02    9.524670e-02    4.230229e+07    6.338400e-09    4.913371e-14    4.007151e-09    6.635420e-10    5.900000e-01    5.830328e-01    7.156733e-02
    1.705477e+01    6.783078e+02    1.133168e-01    4.713043e+07    6.526180e-09    5.433135e-14    4.278969e-09    7.049365e-10    6.000000e-01    5.830328e-01    7.580168e-02
    1.642200e+01    6.869707e+02    1.339639e-01    5.216286e+07    6.712320e-09    5.991645e-14    4.547932e-09    7.455675e-10    6.100000e-01    5.830328e-01    8.029397e-02
    1.579513e+01    6.946891e+02    1.573780e-01    5.737740e+07    6.895190e-09    6.589495e-14    4.811789e-09    7.851035e-10    6.200000e-01    5.830328e-01    8.503061e-02
    1.517901e+01    7.014082e+02    1.837381e-01    6.275396e+07    7.073295e-09    7.227080e-14    5.068500e-09    8.232515e-10    6.300000e-01    5.830328e-01    8.999716e-02
    1.457767e+01    7.071030e+02    2.132110e-01    6.827453e+07    7.245345e-09    7.904605e-14    5.316280e-09    8.597650e-10    6.400000e-01    5.830328e-01    9.517873e-02
    1.399422e+01    7.117731e+02    2.459496e-01    7.392350e+07    7.410245e-09    8.622100e-14    5.553670e-09    8.944495e-10    6.500000e-01    5.830328e-01    1.005604e-01
    1.343099e+01    7.154374e+02    2.820927e-01    7.968705e+07    7.567150e-09    9.379470e-14    5.779525e-09    9.271625e-10    6.600000e-01    5.830328e-01    1.061273e-01
    1.288955e+01    7.181307e+02    3.217647e-01    8.555312e+07    7.715435e-09    1.017649e-13    5.993020e-09    9.578130e-10    6.700000e-01    5.830328e-01    1.118651e-01
    1.237087e+01    7.198975e+02    3.650755e-01    9.151098e+07    7.854705e-09    1.101285e-13    6.193655e-09    9.863560e-10    6.800000e-01    5.830328e-01    1.177601e-01
    1.187542e+01    7.207909e+02    4.121208e-01    9.755086e+07    7.984775e-09    1.188818e-13    6.381210e-09    1.012792e-09    6.900000e-01    5.830328e-01    1.237990e-01
    1.140326e+01    7.208697e+02    4.629833e-01    1.036638e+08    8.105640e-09    1.280207e-13    6.555715e-09    1.037154e-09    7.000000e-01    5.830328e-01    1.299694e-01
    1.095414e+01    7.201960e+02    5.177330e-01    1.098418e+08    8.217440e-09    1.375410e-13    6.717410e-09    1.059506e-09    7.100000e-01    5.830328e-01    1.362597e-01
    1.052757e+01    7.188316e+02    5.764275e-01    1.160770e+08    8.320445e-09    1.474385e-13    6.866715e-09    1.079936e-09    7.200000e-01    5.830328e-01    1.426590e-01
    1.012288e+01    7.168404e+02    6.391150e-01    1.223624e+08    8.415020e-09    1.577091e-13    7.004160e-09    1.098547e-09    7.300000e-01    5.830328e-01    1.491572e-01
    9.739301e+00    7.142836e+02    7.058325e-01    1.286911e+08    8.501610e-09    1.683493e-13    7.130385e-09    1.115453e-09    7.400000e-01    5.830328e-01    1.557452e-01
    9.375961e+00    7.112204e+02    7.766095e-01    1.350568e+08    8.580690e-09    1.793559e-13    7.246090e-09    1.130776e-09    7.500000e-01    5.830328e-01    1.624142e-01
    9.031937e+00    7.077080e+02    8.514680e-01    1.414537e+08    8.652765e-09    1.907262e-13    7.351995e-09    1.144637e-09    7.600000e-01    5.830328e-01    1.691566e-01
    8.706297e+00    7.037990e+02    9.304220e-01    1.478763e+08    8.718365e-09    2.024584e-13    7.448840e-09    1.157158e-09    7.700000e-01    5.830328e-01    1.759652e-01
    8.398094e+00    6.995436e+02    1.013481e+00    1.543196e+08    8.777995e-09    2.145508e-13    7.537355e-09    1.168459e-09    7.800000e-01    5.830328e-01    1.828336e-01
    8.106380e+00    6.949868e+02    1.100649e+00    1.607789e+08    8.832155e-09    2.270027e-13    7.618255e-09    1.178653e-09    7.900000e-01    5.830328e-01    1.897559e-01
    7.830242e+00    6.901712e+02    1.191925e+00    1.672500e+08    8.881335e-09    2.398143e-13    7.692215e-09    1.187846e-09    8.000000e-01    5.830328e-01    1.967269e-01
    7.568779e+00    6.851341e+02    1.287308e+00    1.737290e+08    8.925985e-09    2.529860e-13    7.759880e-09    1.196137e-09    8.100000e-01    5.830328e-01    2.037416e-01
    7.321130e+00    6.799094e+02    1.386790e+00    1.802123e+08    8.966535e-09    2.665191e-13    7.821840e-09    1.203619e-09    8.200000e-01    5.830328e-01    2.107960e-01
    7.086477e+00    6.745285e+02    1.490363e+00    1.866969e+08    9.003375e-09    2.804155e-13    7.878655e-09    1.210377e-09    8.300000e-01    5.830328e-01    2.178861e-01
    6.864027e+00    6.690176e+02    1.598015e+00    1.931798e+08    9.036870e-09    2.946776e-13    7.930830e-09    1.216486e-09    8.400000e-01    5.830328e-01    2.250085e-01
    6.653041e+00    6.634020e+02    1.709734e+00    1.996587e+08    9.067355e-09    3.093087e-13    7.978840e-09    1.222017e-09    8.500000e-01    5.830328e-01    2.321601e-01
    6.452809e+00    6.577023e+02    1.825508e+00    2.061310e+08    9.095140e-09    3.243124e-13    8.023105e-09    1.227035e-09    8.600000e-01    5.830328e-01    2.393382e-01
    6.262665e+00    6.519370e+02    1.945322e+00    2.125948e+08    9.120490e-09    3.396930e-13    8.064005e-09    1.231593e-09    8.700000e-01    5.830328e-01    2.465402e-01
    6.081984e+00    6.461223e+02    2.069161e+00    2.190483e+08    9.143655e-09    3.554552e-13    8.101890e-09    1.235743e-09    8.800000e-01    5.830328e-01    2.537640e-01
    5.910185e+00    6.402727e+02    2.197009e+00    2.254897e+08    9.164870e-09    3.716043e-13    8.137070e-09    1.239530e-09    8.900000e-01    5.830328e-01    2.610076e-01
    5.746716e+00    6.344005e+02    2.328850e+00    2.319178e+08    9.184325e-09    3.881462e-13    8.169825e-09    1.242995e-09    9.000000e-01    5.830328e-01    2.682692e-01
    5.591059e+00    6.285158e+02    2.464668e+00    2.383311e+08    9.202205e-09    4.050871e-13    8.200400e-09    1.246173e-09    9.100000e-01    5.830328e-01    2.755474e-01
    5.442741e+00    6.226283e+02    2.604446e+00    2.447287e+08    9.218670e-09    4.224336e-13    8.229030e-09    1.249096e-09    9.200000e-01    5.830328e-01    2.828406e-01
    5.301307e+00    6.167452e+02    2.748168e+00    2.511094e+08    9.233865e-09    4.401930e-13    8.255905e-09    1.251791e-09    9.300000e-01    5.830328e-01    2.901478e-01
    5.166342e+00    6.108734e+02    2.895818e+00    2.574723e+08    9.247920e-09    4.583728e-13    8.281205e-09    1.254286e-09    9.400000e-01    5.830328e-01    2.974676e-01
    5.037454e+00    6.050186e+02    3.047379e+00    2.638166e+08    9.260950e-09    4.769810e-13    8.305090e-09    1.256599e-09    9.500000e-01    5.830328e-01    3.047993e-01
    4.914281e+00    5.991851e+02    3.202833e+00    2.701418e+08    9.273050e-09    4.960261e-13    8.327695e-09    1.258751e-09    9.600000e-01    5.830328e-01    3.121419e-01
    4.796485e+00    5.933777e+02    3.362165e+00    2.764472e+08    9.284320e-09    5.155170e-13    8.349155e-09    1.260760e-09    9.700000e-01    5.830328e-01    3.194946e-01
    4.683749e+00    5.875990e+02    3.525359e+00    2.827323e+08    9.294835e-09    5.354625e-13    8.369570e-09    1.262641e-09    9.800000e-01    5.830328e-01    3.268567e-01
    4.575778e+00    5.818521e+02    3.692397e+00    2.889966e+08    9.304665e-09    5.558725e-13    8.389050e-09    1.264405e-09    9.900000e-01    5.830328e-01    3.342276e-01
    4.472299e+00    5.761390e+02    3.863265e+00    2.952397e+08    9.313880e-09    5.767570e-13    8.407675e-09    1.266067e-09    1.000000e+00    5.830328e-01    3.416068e-01
    4.373055e+00    5.704617e+02    4.037945e+00    3.014612e+08    9.322535e-09    5.981260e-13    8.425525e-09    1.267637e-09    1.010000e+00    5.830328e-01    3.489938e-01
    4.277809e+00    5.648218e+02    4.216423e+00    3.076608e+08    9.330685e-09    6.199910e-13    8.442670e-09    1.269122e-09    1.020000e+00    5.830328e-01    3.563881e-01
    4.186338e+00    5.592202e+02    4.398681e+00    3.138384e+08    9.338365e-09    6.423625e-13    8.459180e-09    1.270532e-09    1.030000e+00    5.830328e-01    3.637894e-01
    4.098435e+00    5.536579e+02    4.584704e+00    3.199936e+08    9.345620e-09    6.652520e-13    8.475095e-09    1.271873e-09    1.040000e+00    5.830328e-01    3.711973e-01
    4.013904e+00    5.481354e+02    4.774477e+00    3.261262e+08    9.352490e-09    6.886715e-13    8.490480e-09    1.273152e-09    1.050000e+00    5.830328e-01    3.786116e-01
    3.932567e+00    5.426533e+02    4.967985e+00    3.322361e+08    9.359005e-09    7.126340e-13    8.505365e-09    1.274375e-09    1.060000e+00    5.830328e-01    3.860318e-01
    3.854252e+00    5.372118e+02    5.165210e+00    3.383229e+08    9.365195e-09    7.371510e-13    8.519805e-09    1.275547e-09    1.070000e+00    5.830328e-01    3.934580e-01
    3.778801e+00    5.318108e+02    5.366140e+00    3.443868e+08    9.371080e-09    7.622365e-13    8.533820e-09    1.276671e-09    1.080000e+00    5.830328e-01    4.008897e-01
    3.706069e+00    5.264508e+02    5.570755e+00    3.504275e+08    9.376690e-09    7.879035e-13    8.547450e-09    1.277753e-09    1.090000e+00    5.830328e-01    4.083268e-01
    3.635914e+00    5.211313e+02    5.779045e+00    3.564450e+08    9.382040e-09    8.141665e-13    8.560720e-09    1.278795e-09    1.100000e+00    5.830328e-01    4.157692e-01
    3.568204e+00    5.158521e+02    5.990995e+00    3.624391e+08    9.387150e-09    8.410390e-13    8.573660e-09    1.279800e-09    1.110000e+00    5.830328e-01    4.232168e-01
    3.502823e+00    5.106132e+02    6.206585e+00    3.684098e+08    9.392040e-09    8.685370e-13    8.586290e-09    1.280773e-09    1.120000e+00    5.830328e-01    4.306693e-01
    3.439655e+00    5.054141e+02    6.425800e+00    3.743568e+08    9.396725e-09    8.966745e-13    8.598630e-09    1.281713e-09    1.130000e+00    5.830328e-01    4.381267e-01
    3.378590e+00    5.002545e+02    6.648630e+00    3.802803e+08    9.401215e-09    9.254680e-13    8.610700e-09    1.282626e-09    1.140000e+00    5.830328e-01    4.455890e-01
    3.319530e+00    4.951339e+02    6.875055e+00    3.861801e+08    9.405525e-09    9.549335e-13    8.622515e-09    1.283512e-09    1.150000e+00    5.830328e-01    4.530559e-01
    3.262377e+00    4.900519e+02    7.105065e+00    3.920560e+08    9.409665e-09    9.850870e-13    8.634090e-09    1.284372e-09    1.160000e+00    5.830328e-01    4.605276e-01
    3.207045e+00    4.850081e+02    7.338640e+00    3.979083e+08    9.413645e-09    1.015947e-12    8.645445e-09    1.285209e-09    1.170000e+00    5.830328e-01    4.680038e-01
    3.153451e+00    4.800019e+02    7.575765e+00    4.037366e+08    9.417475e-09    1.047530e-12    8.656585e-09    1.286024e-09    1.180000e+00    5.830328e-01    4.754846e-01
    3.101511e+00    4.750331e+02    7.816430e+00    4.095409e+08    9.421165e-09    1.079855e-12    8.667525e-09    1.286819e-09    1.190000e+00    5.830328e-01    4.829699e-01
    3.051156e+00    4.701008e+02    8.060615e+00    4.153216e+08    9.424715e-09    1.112940e-12    8.678275e-09    1.287594e-09    1.200000e+00    5.830328e-01    4.904597e-01
    3.002313e+00    4.652042e+02    8.308305e+00    4.210778e+08    9.428145e-09    1.146803e-12    8.688845e-09    1.288351e-09    1.210000e+00    5.830328e-01    4.979540e-01
    2.954916e+00    4.603438e+02    8.559490e+00    4.268101e+08    9.431450e-09    1.181467e-12    8.699245e-09    1.289090e-09    1.220000e+00    5.830328e-01    5.054528e-01
    2.908901e+00    4.555182e+02    8.814155e+00    4.325182e+08    9.434640e-09    1.216951e-12    8.709485e-09    1.289813e-09    1.230000e+00    5.830328e-01    5.129559e-01
    2.864213e+00    4.507274e+02    9.072275e+00    4.382020e+08    9.437725e-09    1.253275e-12    8.719565e-09    1.290522e-09    1.240000e+00    5.830328e-01    5.204635e-01
    2.820793e+00    4.459703e+02    9.333845e+00    4.438615e+08    9.440705e-09    1.290461e-12    8.729500e-09    1.291214e-09    1.250000e+00    5.830328e-01    5.279756e-01
    2.778587e+00    4.412470e+02    9.598850e+00    4.494966e+08    9.443585e-09    1.328533e-12    8.739290e-09    1.291893e-09    1.260000e+00    5.830328e-01    5.354920e-01
    2.737549e+00    4.365563e+02    9.867265e+00    4.551076e+08    9.446365e-09    1.367512e-12    8.748945e-09    1.292559e-09    1.270000e+00    5.830328e-01    5.430129e-01
    2.697628e+00    4.318988e+02    1.013908e+01    4.606938e+08    9.449060e-09    1.407422e-12    8.758470e-09    1.293211e-09    1.280000e+00    5.830328e-01    5.505383e-01
    2.658781e+00    4.272729e+02    1.041429e+01    4.662556e+08    9.451665e-09    1.448288e-12    8.767870e-09    1.293851e-09    1.290000e+00    5.830328e-01    5.580681e-01
    2.620965e+00    4.226786e+02    1.069287e+01    4.717925e+08    9.454190e-09    1.490135e-12    8.777150e-09    1.294480e-09    1.300000e+00    5.830328e-01    5.656024e-01
    2.584138e+00    4.181155e+02    1.097480e+01    4.773050e+08    9.456630e-09    1.532988e-12    8.786315e-09    1.295096e-09    1.310000e+00    5.830328e-01    5.731413e-01
    2.548264e+00    4.135829e+02    1.126007e+01    4.827927e+08    9.458995e-09    1.576874e-12    8.795370e-09    1.295703e-09    1.320000e+00    5.830328e-01    5.806846e-01
    2.513307e+00    4.090806e+02    1.154866e+01    4.882556e+08    9.461285e-09    1.621820e-12    8.804310e-09    1.296299e-09    1.330000e+00    5.830328e-01    5.882324e-01
    2.479229e+00    4.046081e+02    1.184057e+01    4.936935e+08    9.463505e-09    1.667855e-12    8.813155e-09    1.296885e-09    1.340000e+00    5.830328e-01    5.957849e-01
    2.446000e+00    4.001647e+02    1.213577e+01    4.991066e+08    9.465655e-09    1.715007e-12    8.821895e-09    1.297461e-09    1.350000e+00    5.830328e-01    6.033419e-01
    2.413587e+00    3.957502e+02    1.243425e+01    5.044944e+08    9.467740e-09    1.763308e-12    8.830540e-09    1.298027e-09    1.360000e+00    5.830328e-01    6.109036e-01
    2.381961e+00    3.913642e+02    1.273599e+01    5.098575e+08    9.469755e-09    1.812788e-12    8.839090e-09    1.298586e-09    1.370000e+00    5.830328e-01    6.184699e-01
