# GF180MCU-D pfet_03v3 gm/ID Processed Lookup Table
# Corner: fs
# Temperature: 25C
# W = 2.0 um
# L = 4.5 um (4500 nm)
# Columns: gm/id [1/V]  gm/gds [V/V]  id/W [A/m]  ft [Hz]  Cgg/W [F/m]  Cgd/W [F/m]  Cgs/W [F/m]  Cdb/W [F/m]  vgs [V]  vth [V]  vdsat [V]
# vdsat = BSIM saturation voltage (|VDS|_sat, positive); use for headroom / saturation / cascode-bias calculations
#           gm/id          gm/gds            id/W              ft           Cgg/W           Cgd/W           Cgs/W           Cdb/W             vgs             vth           vdsat
    6.641766e-01    5.788161e+00    1.332955e+01    9.724601e+07    1.448930e-08    1.806101e-10    1.435733e-08    2.602218e-09   -3.300000e+00    8.602671e-01    1.814120e+00
    6.697968e-01    6.017288e+00    1.324102e+01    9.743414e+07    1.448683e-08    1.747117e-10    1.435161e-08    2.601508e-09   -3.290000e+00    8.602671e-01    1.805759e+00
    6.754647e-01    6.261309e+00    1.315218e+01    9.761530e+07    1.448447e-08    1.690197e-10    1.434577e-08    2.600798e-09   -3.280000e+00    8.602671e-01    1.797408e+00
    6.811666e-01    6.521418e+00    1.306327e+01    9.778915e+07    1.448220e-08    1.635274e-10    1.433983e-08    2.600090e-09   -3.270000e+00    8.602671e-01    1.789068e+00
    6.869031e-01    6.798897e+00    1.297421e+01    9.795507e+07    1.448003e-08    1.582275e-10    1.433378e-08    2.599382e-09   -3.260000e+00    8.602671e-01    1.780738e+00
    6.926708e-01    7.095129e+00    1.288503e+01    9.811262e+07    1.447796e-08    1.531133e-10    1.432762e-08    2.598676e-09   -3.250000e+00    8.602671e-01    1.772418e+00
    6.984666e-01    7.411608e+00    1.279571e+01    9.826127e+07    1.447598e-08    1.481784e-10    1.432138e-08    2.597971e-09   -3.240000e+00    8.602671e-01    1.764108e+00
    7.042872e-01    7.749932e+00    1.270628e+01    9.840044e+07    1.447409e-08    1.434164e-10    1.431504e-08    2.597269e-09   -3.230000e+00    8.602671e-01    1.755809e+00
    7.101284e-01    8.111820e+00    1.261674e+01    9.852971e+07    1.447228e-08    1.388211e-10    1.430860e-08    2.596569e-09   -3.220000e+00    8.602671e-01    1.747519e+00
    7.159868e-01    8.499103e+00    1.252710e+01    9.864850e+07    1.447055e-08    1.343866e-10    1.430207e-08    2.595870e-09   -3.210000e+00    8.602671e-01    1.739240e+00
    7.218577e-01    8.913723e+00    1.243736e+01    9.875617e+07    1.446890e-08    1.301071e-10    1.429546e-08    2.595174e-09   -3.200000e+00    8.602671e-01    1.730971e+00
    7.277372e-01    9.357759e+00    1.234754e+01    9.885228e+07    1.446732e-08    1.259771e-10    1.428877e-08    2.594481e-09   -3.190000e+00    8.602671e-01    1.722711e+00
    7.336209e-01    9.833381e+00    1.225765e+01    9.893634e+07    1.446582e-08    1.219911e-10    1.428199e-08    2.593790e-09   -3.180000e+00    8.602671e-01    1.714462e+00
    7.395044e-01    1.034289e+01    1.216769e+01    9.900772e+07    1.446438e-08    1.181439e-10    1.427513e-08    2.593101e-09   -3.170000e+00    8.602671e-01    1.706223e+00
    7.453834e-01    1.088868e+01    1.207769e+01    9.906603e+07    1.446302e-08    1.144305e-10    1.426820e-08    2.592416e-09   -3.160000e+00    8.602671e-01    1.697994e+00
    7.512543e-01    1.147325e+01    1.198765e+01    9.911085e+07    1.446172e-08    1.108460e-10    1.426121e-08    2.591733e-09   -3.150000e+00    8.602671e-01    1.689775e+00
    7.571127e-01    1.209917e+01    1.189757e+01    9.914178e+07    1.446047e-08    1.073857e-10    1.425413e-08    2.591053e-09   -3.140000e+00    8.602671e-01    1.681565e+00
    7.629548e-01    1.276911e+01    1.180749e+01    9.915852e+07    1.445928e-08    1.040451e-10    1.424699e-08    2.590377e-09   -3.130000e+00    8.602671e-01    1.673366e+00
    7.687770e-01    1.348574e+01    1.171741e+01    9.916066e+07    1.445815e-08    1.008198e-10    1.423978e-08    2.589703e-09   -3.120000e+00    8.602671e-01    1.665176e+00
    7.745765e-01    1.425180e+01    1.162734e+01    9.914805e+07    1.445707e-08    9.770565e-11    1.423251e-08    2.589032e-09   -3.110000e+00    8.602671e-01    1.656997e+00
    7.803501e-01    1.507002e+01    1.153729e+01    9.912057e+07    1.445605e-08    9.469850e-11    1.422518e-08    2.588364e-09   -3.100000e+00    8.602671e-01    1.648827e+00
    7.860959e-01    1.594313e+01    1.144728e+01    9.907809e+07    1.445508e-08    9.179440e-11    1.421778e-08    2.587699e-09   -3.090000e+00    8.602671e-01    1.640667e+00
    7.918122e-01    1.687380e+01    1.135732e+01    9.902066e+07    1.445414e-08    8.898965e-11    1.421032e-08    2.587038e-09   -3.080000e+00    8.602671e-01    1.632517e+00
    7.974968e-01    1.786457e+01    1.126743e+01    9.894821e+07    1.445326e-08    8.628055e-11    1.420281e-08    2.586380e-09   -3.070000e+00    8.602671e-01    1.624377e+00
    8.031493e-01    1.891796e+01    1.117761e+01    9.886099e+07    1.445242e-08    8.366365e-11    1.419524e-08    2.585725e-09   -3.060000e+00    8.602671e-01    1.616246e+00
    8.087697e-01    2.003630e+01    1.108788e+01    9.875914e+07    1.445162e-08    8.113550e-11    1.418762e-08    2.585073e-09   -3.050000e+00    8.602671e-01    1.608125e+00
    8.143575e-01    2.122174e+01    1.099826e+01    9.864291e+07    1.445085e-08    7.869290e-11    1.417994e-08    2.584423e-09   -3.040000e+00    8.602671e-01    1.600014e+00
    8.199135e-01    2.247625e+01    1.090876e+01    9.851261e+07    1.445013e-08    7.633270e-11    1.417221e-08    2.583777e-09   -3.030000e+00    8.602671e-01    1.591913e+00
    8.254392e-01    2.380157e+01    1.081938e+01    9.836862e+07    1.444944e-08    7.405190e-11    1.416444e-08    2.583134e-09   -3.020000e+00    8.602671e-01    1.583821e+00
    8.309352e-01    2.519919e+01    1.073015e+01    9.821135e+07    1.444878e-08    7.184755e-11    1.415661e-08    2.582494e-09   -3.010000e+00    8.602671e-01    1.575739e+00
    8.364036e-01    2.667031e+01    1.064106e+01    9.804119e+07    1.444816e-08    6.971685e-11    1.414873e-08    2.581857e-09   -3.000000e+00    8.602671e-01    1.567667e+00
    8.418473e-01    2.821588e+01    1.055215e+01    9.785873e+07    1.444757e-08    6.765720e-11    1.414081e-08    2.581223e-09   -2.990000e+00    8.602671e-01    1.559604e+00
    8.472676e-01    2.983650e+01    1.046340e+01    9.766431e+07    1.444700e-08    6.566595e-11    1.413284e-08    2.580591e-09   -2.980000e+00    8.602671e-01    1.551551e+00
    8.526682e-01    3.153254e+01    1.037485e+01    9.745864e+07    1.444646e-08    6.374060e-11    1.412483e-08    2.579963e-09   -2.970000e+00    8.602671e-01    1.543508e+00
    8.580511e-01    3.330396e+01    1.028648e+01    9.724201e+07    1.444595e-08    6.187875e-11    1.411677e-08    2.579337e-09   -2.960000e+00    8.602671e-01    1.535474e+00
    8.634202e-01    3.515057e+01    1.019832e+01    9.701515e+07    1.444546e-08    6.007815e-11    1.410867e-08    2.578713e-09   -2.950000e+00    8.602671e-01    1.527450e+00
    8.687779e-01    3.707175e+01    1.011038e+01    9.677844e+07    1.444500e-08    5.833655e-11    1.410053e-08    2.578093e-09   -2.940000e+00    8.602671e-01    1.519435e+00
    8.741276e-01    3.906666e+01    1.002265e+01    9.653246e+07    1.444456e-08    5.665185e-11    1.409235e-08    2.577474e-09   -2.930000e+00    8.602671e-01    1.511430e+00
    8.794729e-01    4.113424e+01    9.935155e+00    9.627770e+07    1.444414e-08    5.502190e-11    1.408413e-08    2.576859e-09   -2.920000e+00    8.602671e-01    1.503434e+00
    8.848166e-01    4.327312e+01    9.847900e+00    9.601468e+07    1.444373e-08    5.344485e-11    1.407586e-08    2.576245e-09   -2.910000e+00    8.602671e-01    1.495448e+00
    8.901626e-01    4.548178e+01    9.760885e+00    9.574382e+07    1.444335e-08    5.191875e-11    1.406756e-08    2.575634e-09   -2.900000e+00    8.602671e-01    1.487471e+00
    8.955130e-01    4.775846e+01    9.674125e+00    9.546560e+07    1.444298e-08    5.044175e-11    1.405922e-08    2.575025e-09   -2.890000e+00    8.602671e-01    1.479503e+00
    9.008722e-01    5.010128e+01    9.587620e+00    9.518047e+07    1.444263e-08    4.901210e-11    1.405084e-08    2.574419e-09   -2.880000e+00    8.602671e-01    1.471545e+00
    9.062420e-01    5.250820e+01    9.501380e+00    9.488877e+07    1.444230e-08    4.762815e-11    1.404243e-08    2.573814e-09   -2.870000e+00    8.602671e-01    1.463597e+00
    9.116257e-01    5.497710e+01    9.415410e+00    9.459093e+07    1.444197e-08    4.628824e-11    1.403397e-08    2.573212e-09   -2.860000e+00    8.602671e-01    1.455658e+00
    9.170269e-01    5.750579e+01    9.329715e+00    9.428736e+07    1.444166e-08    4.499084e-11    1.402548e-08    2.572611e-09   -2.850000e+00    8.602671e-01    1.447728e+00
    9.224479e-01    6.009202e+01    9.244300e+00    9.397834e+07    1.444137e-08    4.373442e-11    1.401696e-08    2.572012e-09   -2.840000e+00    8.602671e-01    1.439807e+00
    9.278908e-01    6.273345e+01    9.159170e+00    9.366420e+07    1.444107e-08    4.251753e-11    1.400840e-08    2.571415e-09   -2.830000e+00    8.602671e-01    1.431896e+00
    9.333593e-01    6.542788e+01    9.074330e+00    9.334526e+07    1.444080e-08    4.133881e-11    1.399980e-08    2.570819e-09   -2.820000e+00    8.602671e-01    1.423994e+00
    9.388556e-01    6.817301e+01    8.989780e+00    9.302182e+07    1.444053e-08    4.019690e-11    1.399117e-08    2.570226e-09   -2.810000e+00    8.602671e-01    1.416102e+00
    9.443817e-01    7.096663e+01    8.905530e+00    9.269412e+07    1.444027e-08    3.909050e-11    1.398250e-08    2.569634e-09   -2.800000e+00    8.602671e-01    1.408218e+00
    9.499403e-01    7.380652e+01    8.821575e+00    9.236235e+07    1.444002e-08    3.801840e-11    1.397380e-08    2.569043e-09   -2.790000e+00    8.602671e-01    1.400344e+00
    9.555335e-01    7.669070e+01    8.737930e+00    9.202680e+07    1.443977e-08    3.697940e-11    1.396507e-08    2.568453e-09   -2.780000e+00    8.602671e-01    1.392479e+00
    9.611640e-01    7.961712e+01    8.654590e+00    9.168773e+07    1.443952e-08    3.597234e-11    1.395630e-08    2.567865e-09   -2.770000e+00    8.602671e-01    1.384624e+00
    9.668328e-01    8.258377e+01    8.571560e+00    9.134516e+07    1.443929e-08    3.499613e-11    1.394750e-08    2.567277e-09   -2.760000e+00    8.602671e-01    1.376777e+00
    9.725428e-01    8.558895e+01    8.488845e+00    9.099943e+07    1.443906e-08    3.404969e-11    1.393867e-08    2.566692e-09   -2.750000e+00    8.602671e-01    1.368940e+00
    9.782958e-01    8.863094e+01    8.406445e+00    9.065064e+07    1.443882e-08    3.313202e-11    1.392980e-08    2.566107e-09   -2.740000e+00    8.602671e-01    1.361112e+00
    9.840937e-01    9.170811e+01    8.324365e+00    9.029893e+07    1.443860e-08    3.224213e-11    1.392090e-08    2.565522e-09   -2.730000e+00    8.602671e-01    1.353292e+00
    9.899383e-01    9.481908e+01    8.242610e+00    8.994451e+07    1.443837e-08    3.137906e-11    1.391197e-08    2.564939e-09   -2.720000e+00    8.602671e-01    1.345483e+00
    9.958309e-01    9.796232e+01    8.161175e+00    8.958738e+07    1.443815e-08    3.054191e-11    1.390300e-08    2.564356e-09   -2.710000e+00    8.602671e-01    1.337682e+00
    1.001775e+00    1.011368e+02    8.080065e+00    8.922782e+07    1.443793e-08    2.972981e-11    1.389400e-08    2.563774e-09   -2.700000e+00    8.602671e-01    1.329890e+00
    1.007770e+00    1.043412e+02    7.999285e+00    8.886582e+07    1.443770e-08    2.894190e-11    1.388497e-08    2.563192e-09   -2.690000e+00    8.602671e-01    1.322107e+00
    1.013819e+00    1.075747e+02    7.918840e+00    8.850155e+07    1.443747e-08    2.817736e-11    1.387591e-08    2.562611e-09   -2.680000e+00    8.602671e-01    1.314333e+00
    1.019924e+00    1.108363e+02    7.838720e+00    8.813509e+07    1.443725e-08    2.743542e-11    1.386681e-08    2.562030e-09   -2.670000e+00    8.602671e-01    1.306569e+00
    1.026085e+00    1.141252e+02    7.758940e+00    8.776647e+07    1.443702e-08    2.671534e-11    1.385768e-08    2.561449e-09   -2.660000e+00    8.602671e-01    1.298813e+00
    1.032306e+00    1.174408e+02    7.679495e+00    8.739588e+07    1.443678e-08    2.601636e-11    1.384851e-08    2.560869e-09   -2.650000e+00    8.602671e-01    1.291066e+00
    1.038586e+00    1.207824e+02    7.600390e+00    8.702325e+07    1.443655e-08    2.533780e-11    1.383932e-08    2.560288e-09   -2.640000e+00    8.602671e-01    1.283329e+00
    1.044928e+00    1.241495e+02    7.521625e+00    8.664875e+07    1.443630e-08    2.467898e-11    1.383010e-08    2.559708e-09   -2.630000e+00    8.602671e-01    1.275600e+00
    1.051335e+00    1.275420e+02    7.443200e+00    8.627246e+07    1.443606e-08    2.403924e-11    1.382084e-08    2.559127e-09   -2.620000e+00    8.602671e-01    1.267880e+00
    1.057806e+00    1.309593e+02    7.365120e+00    8.589439e+07    1.443581e-08    2.341798e-11    1.381155e-08    2.558547e-09   -2.610000e+00    8.602671e-01    1.260169e+00
    1.064344e+00    1.344013e+02    7.287380e+00    8.551460e+07    1.443555e-08    2.281457e-11    1.380222e-08    2.557965e-09   -2.600000e+00    8.602671e-01    1.252467e+00
    1.070949e+00    1.378679e+02    7.209995e+00    8.513315e+07    1.443528e-08    2.222844e-11    1.379286e-08    2.557383e-09   -2.590000e+00    8.602671e-01    1.244773e+00
    1.077626e+00    1.413589e+02    7.132950e+00    8.475006e+07    1.443502e-08    2.165903e-11    1.378347e-08    2.556802e-09   -2.580000e+00    8.602671e-01    1.237089e+00
    1.084373e+00    1.448744e+02    7.056260e+00    8.436541e+07    1.443474e-08    2.110580e-11    1.377404e-08    2.556219e-09   -2.570000e+00    8.602671e-01    1.229413e+00
    1.091192e+00    1.484144e+02    6.979920e+00    8.397918e+07    1.443445e-08    2.056822e-11    1.376458e-08    2.555636e-09   -2.560000e+00    8.602671e-01    1.221747e+00
    1.098088e+00    1.519793e+02    6.903930e+00    8.359150e+07    1.443416e-08    2.004580e-11    1.375509e-08    2.555052e-09   -2.550000e+00    8.602671e-01    1.214089e+00
    1.105058e+00    1.555689e+02    6.828300e+00    8.320233e+07    1.443385e-08    1.953804e-11    1.374556e-08    2.554467e-09   -2.540000e+00    8.602671e-01    1.206439e+00
    1.112107e+00    1.591838e+02    6.753020e+00    8.281175e+07    1.443353e-08    1.904449e-11    1.373600e-08    2.553882e-09   -2.530000e+00    8.602671e-01    1.198799e+00
    1.119236e+00    1.628242e+02    6.678095e+00    8.241979e+07    1.443321e-08    1.856468e-11    1.372641e-08    2.553295e-09   -2.520000e+00    8.602671e-01    1.191167e+00
    1.126444e+00    1.664902e+02    6.603535e+00    8.202638e+07    1.443288e-08    1.809819e-11    1.371678e-08    2.552707e-09   -2.510000e+00    8.602671e-01    1.183544e+00
    1.133738e+00    1.701826e+02    6.529325e+00    8.163168e+07    1.443253e-08    1.764460e-11    1.370712e-08    2.552118e-09   -2.500000e+00    8.602671e-01    1.175930e+00
    1.141115e+00    1.739015e+02    6.455480e+00    8.123561e+07    1.443217e-08    1.720350e-11    1.369742e-08    2.551527e-09   -2.490000e+00    8.602671e-01    1.168324e+00
    1.148578e+00    1.776476e+02    6.382000e+00    8.083826e+07    1.443180e-08    1.677450e-11    1.368769e-08    2.550935e-09   -2.480000e+00    8.602671e-01    1.160727e+00
    1.156130e+00    1.814214e+02    6.308880e+00    8.043964e+07    1.443142e-08    1.635722e-11    1.367792e-08    2.550342e-09   -2.470000e+00    8.602671e-01    1.153139e+00
    1.163772e+00    1.852233e+02    6.236120e+00    8.003968e+07    1.443102e-08    1.595131e-11    1.366811e-08    2.549746e-09   -2.460000e+00    8.602671e-01    1.145560e+00
    1.171506e+00    1.890542e+02    6.163730e+00    7.963860e+07    1.443061e-08    1.555640e-11    1.365827e-08    2.549150e-09   -2.450000e+00    8.602671e-01    1.137988e+00
    1.179332e+00    1.929142e+02    6.091705e+00    7.923617e+07    1.443018e-08    1.517216e-11    1.364838e-08    2.548552e-09   -2.440000e+00    8.602671e-01    1.130426e+00
    1.187256e+00    1.968045e+02    6.020045e+00    7.883258e+07    1.442974e-08    1.479827e-11    1.363847e-08    2.547951e-09   -2.430000e+00    8.602671e-01    1.122872e+00
    1.195276e+00    2.007254e+02    5.948760e+00    7.842779e+07    1.442929e-08    1.443439e-11    1.362852e-08    2.547349e-09   -2.420000e+00    8.602671e-01    1.115327e+00
    1.203396e+00    2.046779e+02    5.877840e+00    7.802180e+07    1.442881e-08    1.408025e-11    1.361853e-08    2.546745e-09   -2.410000e+00    8.602671e-01    1.107790e+00
    1.211618e+00    2.086624e+02    5.807290e+00    7.761461e+07    1.442832e-08    1.373553e-11    1.360850e-08    2.546138e-09   -2.400000e+00    8.602671e-01    1.100262e+00
    1.219943e+00    2.126800e+02    5.737115e+00    7.720630e+07    1.442782e-08    1.339994e-11    1.359843e-08    2.545529e-09   -2.390000e+00    8.602671e-01    1.092742e+00
    1.228374e+00    2.167313e+02    5.667315e+00    7.679678e+07    1.442730e-08    1.307323e-11    1.358832e-08    2.544918e-09   -2.380000e+00    8.602671e-01    1.085231e+00
    1.236913e+00    2.208170e+02    5.597885e+00    7.638615e+07    1.442675e-08    1.275510e-11    1.357818e-08    2.544305e-09   -2.370000e+00    8.602671e-01    1.077728e+00
    1.245563e+00    2.249384e+02    5.528830e+00    7.597441e+07    1.442619e-08    1.244533e-11    1.356799e-08    2.543689e-09   -2.360000e+00    8.602671e-01    1.070234e+00
    1.254324e+00    2.290959e+02    5.460155e+00    7.556150e+07    1.442561e-08    1.214365e-11    1.355776e-08    2.543070e-09   -2.350000e+00    8.602671e-01    1.062748e+00
    1.263201e+00    2.332904e+02    5.391855e+00    7.514748e+07    1.442501e-08    1.184982e-11    1.354749e-08    2.542448e-09   -2.340000e+00    8.602671e-01    1.055270e+00
    1.272194e+00    2.375231e+02    5.323935e+00    7.473237e+07    1.442440e-08    1.156361e-11    1.353719e-08    2.541824e-09   -2.330000e+00    8.602671e-01    1.047801e+00
    1.281307e+00    2.417946e+02    5.256395e+00    7.431611e+07    1.442376e-08    1.128481e-11    1.352684e-08    2.541197e-09   -2.320000e+00    8.602671e-01    1.040341e+00
    1.290543e+00    2.461062e+02    5.189235e+00    7.389881e+07    1.442310e-08    1.101318e-11    1.351644e-08    2.540567e-09   -2.310000e+00    8.602671e-01    1.032888e+00
    1.299903e+00    2.504586e+02    5.122455e+00    7.348036e+07    1.442242e-08    1.074852e-11    1.350601e-08    2.539933e-09   -2.300000e+00    8.602671e-01    1.025444e+00
    1.309391e+00    2.548530e+02    5.056060e+00    7.306089e+07    1.442171e-08    1.049063e-11    1.349553e-08    2.539296e-09   -2.290000e+00    8.602671e-01    1.018009e+00
    1.319008e+00    2.592901e+02    4.990050e+00    7.264027e+07    1.442099e-08    1.023932e-11    1.348500e-08    2.538657e-09   -2.280000e+00    8.602671e-01    1.010581e+00
    1.328759e+00    2.637714e+02    4.924423e+00    7.221863e+07    1.442023e-08    9.994375e-12    1.347443e-08    2.538013e-09   -2.270000e+00    8.602671e-01    1.003162e+00
    1.338645e+00    2.682976e+02    4.859183e+00    7.179592e+07    1.441946e-08    9.755635e-12    1.346382e-08    2.537366e-09   -2.260000e+00    8.602671e-01    9.957515e-01
    1.348669e+00    2.728699e+02    4.794329e+00    7.137209e+07    1.441867e-08    9.522915e-12    1.345316e-08    2.536716e-09   -2.250000e+00    8.602671e-01    9.883490e-01
    1.358835e+00    2.774893e+02    4.729864e+00    7.094721e+07    1.441784e-08    9.296045e-12    1.344245e-08    2.536061e-09   -2.240000e+00    8.602671e-01    9.809547e-01
    1.369146e+00    2.821573e+02    4.665787e+00    7.052130e+07    1.441699e-08    9.074855e-12    1.343170e-08    2.535403e-09   -2.230000e+00    8.602671e-01    9.735687e-01
    1.379606e+00    2.868748e+02    4.602101e+00    7.009435e+07    1.441612e-08    8.859185e-12    1.342089e-08    2.534740e-09   -2.220000e+00    8.602671e-01    9.661909e-01
