# GF180MCU-D pfet_03v3 gm/ID Processed Lookup Table
# Corner: fs
# Temperature: 25C
# W = 2.0 um
# L = 3.5 um (3500 nm)
# Columns: gm/id [1/V]  gm/gds [V/V]  id/W [A/m]  ft [Hz]  Cgg/W [F/m]  Cgd/W [F/m]  Cgs/W [F/m]  Cdb/W [F/m]  vgs [V]  vth [V]  vdsat [V]
# vdsat = BSIM saturation voltage (|VDS|_sat, positive); use for headroom / saturation / cascode-bias calculations
#           gm/id          gm/gds            id/W              ft           Cgg/W           Cgd/W           Cgs/W           Cdb/W             vgs             vth           vdsat
    6.575356e-01    5.446158e+00    1.719462e+01    1.592278e+08    1.130090e-08    1.411485e-10    1.117547e-08    2.018664e-09   -3.300000e+00    8.612785e-01    1.823734e+00
    6.631218e-01    5.652338e+00    1.708156e+01    1.595515e+08    1.129900e-08    1.365598e-10    1.117111e-08    2.018119e-09   -3.290000e+00    8.612785e-01    1.815349e+00
    6.687598e-01    5.871440e+00    1.696808e+01    1.598648e+08    1.129719e-08    1.321312e-10    1.116668e-08    2.017575e-09   -3.280000e+00    8.612785e-01    1.806975e+00
    6.744351e-01    6.104468e+00    1.685450e+01    1.601670e+08    1.129545e-08    1.278568e-10    1.116216e-08    2.017030e-09   -3.270000e+00    8.612785e-01    1.798611e+00
    6.801488e-01    6.352496e+00    1.674074e+01    1.604573e+08    1.129378e-08    1.237317e-10    1.115755e-08    2.016487e-09   -3.260000e+00    8.612785e-01    1.790257e+00
    6.858990e-01    6.616694e+00    1.662679e+01    1.607350e+08    1.129219e-08    1.197504e-10    1.115287e-08    2.015945e-09   -3.250000e+00    8.612785e-01    1.781913e+00
    6.916822e-01    6.898307e+00    1.651265e+01    1.609994e+08    1.129067e-08    1.159080e-10    1.114810e-08    2.015404e-09   -3.240000e+00    8.612785e-01    1.773579e+00
    6.974947e-01    7.198666e+00    1.639836e+01    1.612493e+08    1.128921e-08    1.121996e-10    1.114326e-08    2.014864e-09   -3.230000e+00    8.612785e-01    1.765256e+00
    7.033334e-01    7.519207e+00    1.628391e+01    1.614841e+08    1.128783e-08    1.086204e-10    1.113836e-08    2.014326e-09   -3.220000e+00    8.612785e-01    1.756942e+00
    7.091949e-01    7.861446e+00    1.616930e+01    1.617029e+08    1.128649e-08    1.051658e-10    1.113339e-08    2.013788e-09   -3.210000e+00    8.612785e-01    1.748638e+00
    7.150748e-01    8.227009e+00    1.605457e+01    1.619048e+08    1.128523e-08    1.018314e-10    1.112834e-08    2.013254e-09   -3.200000e+00    8.612785e-01    1.740344e+00
    7.209690e-01    8.617593e+00    1.593970e+01    1.620888e+08    1.128402e-08    9.861290e-11    1.112323e-08    2.012720e-09   -3.190000e+00    8.612785e-01    1.732060e+00
    7.268737e-01    9.035010e+00    1.582473e+01    1.622542e+08    1.128287e-08    9.550615e-11    1.111806e-08    2.012189e-09   -3.180000e+00    8.612785e-01    1.723786e+00
    7.327844e-01    9.481135e+00    1.570966e+01    1.624000e+08    1.128177e-08    9.250705e-11    1.111283e-08    2.011659e-09   -3.170000e+00    8.612785e-01    1.715521e+00
    7.386972e-01    9.957950e+00    1.559450e+01    1.625254e+08    1.128072e-08    8.961180e-11    1.110753e-08    2.011132e-09   -3.160000e+00    8.612785e-01    1.707267e+00
    7.446074e-01    1.046748e+01    1.547927e+01    1.626296e+08    1.127971e-08    8.681665e-11    1.110219e-08    2.010607e-09   -3.150000e+00    8.612785e-01    1.699022e+00
    7.505106e-01    1.101183e+01    1.536398e+01    1.627118e+08    1.127877e-08    8.411790e-11    1.109678e-08    2.010083e-09   -3.140000e+00    8.612785e-01    1.690788e+00
    7.564038e-01    1.159314e+01    1.524866e+01    1.627717e+08    1.127786e-08    8.151205e-11    1.109133e-08    2.009562e-09   -3.130000e+00    8.612785e-01    1.682563e+00
    7.622823e-01    1.221359e+01    1.513331e+01    1.628083e+08    1.127699e-08    7.899575e-11    1.108582e-08    2.009044e-09   -3.120000e+00    8.612785e-01    1.674348e+00
    7.681430e-01    1.287535e+01    1.501795e+01    1.628213e+08    1.127617e-08    7.656580e-11    1.108027e-08    2.008527e-09   -3.110000e+00    8.612785e-01    1.666142e+00
    7.739826e-01    1.358061e+01    1.490259e+01    1.628103e+08    1.127538e-08    7.421895e-11    1.107466e-08    2.008013e-09   -3.100000e+00    8.612785e-01    1.657947e+00
    7.797984e-01    1.433149e+01    1.478727e+01    1.627750e+08    1.127464e-08    7.195220e-11    1.106900e-08    2.007501e-09   -3.090000e+00    8.612785e-01    1.649761e+00
    7.855878e-01    1.513008e+01    1.467197e+01    1.627153e+08    1.127393e-08    6.976260e-11    1.106330e-08    2.006991e-09   -3.080000e+00    8.612785e-01    1.641584e+00
    7.913493e-01    1.597836e+01    1.455675e+01    1.626311e+08    1.127325e-08    6.764745e-11    1.105755e-08    2.006485e-09   -3.070000e+00    8.612785e-01    1.633418e+00
    7.970809e-01    1.687820e+01    1.444159e+01    1.625223e+08    1.127261e-08    6.560390e-11    1.105177e-08    2.005979e-09   -3.060000e+00    8.612785e-01    1.625261e+00
    8.027820e-01    1.783133e+01    1.432653e+01    1.623895e+08    1.127200e-08    6.362940e-11    1.104593e-08    2.005477e-09   -3.050000e+00    8.612785e-01    1.617114e+00
    8.084519e-01    1.883930e+01    1.421157e+01    1.622326e+08    1.127142e-08    6.172140e-11    1.104006e-08    2.004976e-09   -3.040000e+00    8.612785e-01    1.608976e+00
    8.140908e-01    1.990348e+01    1.409675e+01    1.620521e+08    1.127087e-08    5.987755e-11    1.103414e-08    2.004479e-09   -3.030000e+00    8.612785e-01    1.600848e+00
    8.196990e-01    2.102505e+01    1.398206e+01    1.618485e+08    1.127034e-08    5.809540e-11    1.102819e-08    2.003983e-09   -3.020000e+00    8.612785e-01    1.592729e+00
    8.252778e-01    2.220486e+01    1.386753e+01    1.616224e+08    1.126985e-08    5.637280e-11    1.102220e-08    2.003489e-09   -3.010000e+00    8.612785e-01    1.584620e+00
    8.308282e-01    2.344364e+01    1.375318e+01    1.613744e+08    1.126937e-08    5.470755e-11    1.101617e-08    2.002999e-09   -3.000000e+00    8.612785e-01    1.576521e+00
    8.363521e-01    2.474174e+01    1.363901e+01    1.611052e+08    1.126892e-08    5.309755e-11    1.101011e-08    2.002510e-09   -2.990000e+00    8.612785e-01    1.568431e+00
    8.418519e-01    2.609934e+01    1.352504e+01    1.608157e+08    1.126850e-08    5.154080e-11    1.100401e-08    2.002023e-09   -2.980000e+00    8.612785e-01    1.560351e+00
    8.473294e-01    2.751629e+01    1.341129e+01    1.605066e+08    1.126809e-08    5.003540e-11    1.099787e-08    2.001538e-09   -2.970000e+00    8.612785e-01    1.552280e+00
    8.527880e-01    2.899221e+01    1.329777e+01    1.601786e+08    1.126770e-08    4.857946e-11    1.099170e-08    2.001055e-09   -2.960000e+00    8.612785e-01    1.544218e+00
    8.582296e-01    3.052645e+01    1.318449e+01    1.598327e+08    1.126734e-08    4.717121e-11    1.098549e-08    2.000575e-09   -2.950000e+00    8.612785e-01    1.536166e+00
    8.636580e-01    3.211812e+01    1.307146e+01    1.594698e+08    1.126699e-08    4.580892e-11    1.097926e-08    2.000096e-09   -2.940000e+00    8.612785e-01    1.528123e+00
    8.690760e-01    3.376614e+01    1.295871e+01    1.590906e+08    1.126666e-08    4.449094e-11    1.097299e-08    1.999619e-09   -2.930000e+00    8.612785e-01    1.520090e+00
    8.744869e-01    3.546920e+01    1.284623e+01    1.586960e+08    1.126634e-08    4.321569e-11    1.096669e-08    1.999144e-09   -2.920000e+00    8.612785e-01    1.512066e+00
    8.798931e-01    3.722577e+01    1.273404e+01    1.582868e+08    1.126604e-08    4.198162e-11    1.096036e-08    1.998672e-09   -2.910000e+00    8.612785e-01    1.504052e+00
    8.852988e-01    3.903425e+01    1.262214e+01    1.578639e+08    1.126575e-08    4.078727e-11    1.095400e-08    1.998200e-09   -2.900000e+00    8.612785e-01    1.496046e+00
    8.907066e-01    4.089285e+01    1.251055e+01    1.574278e+08    1.126548e-08    3.963122e-11    1.094761e-08    1.997731e-09   -2.890000e+00    8.612785e-01    1.488050e+00
    8.961205e-01    4.279973e+01    1.239928e+01    1.569796e+08    1.126522e-08    3.851211e-11    1.094119e-08    1.997263e-09   -2.880000e+00    8.612785e-01    1.480064e+00
    9.015427e-01    4.475292e+01    1.228833e+01    1.565197e+08    1.126497e-08    3.742862e-11    1.093473e-08    1.996796e-09   -2.870000e+00    8.612785e-01    1.472086e+00
    9.069764e-01    4.675045e+01    1.217771e+01    1.560490e+08    1.126473e-08    3.637950e-11    1.092826e-08    1.996331e-09   -2.860000e+00    8.612785e-01    1.464118e+00
    9.124250e-01    4.879029e+01    1.206743e+01    1.555680e+08    1.126450e-08    3.536352e-11    1.092175e-08    1.995868e-09   -2.850000e+00    8.612785e-01    1.456159e+00
    9.178913e-01    5.087047e+01    1.195750e+01    1.550773e+08    1.126428e-08    3.437953e-11    1.091521e-08    1.995406e-09   -2.840000e+00    8.612785e-01    1.448209e+00
    9.233777e-01    5.298894e+01    1.184792e+01    1.545775e+08    1.126407e-08    3.342639e-11    1.090865e-08    1.994945e-09   -2.830000e+00    8.612785e-01    1.440269e+00
    9.288874e-01    5.514378e+01    1.173870e+01    1.540691e+08    1.126387e-08    3.250303e-11    1.090206e-08    1.994486e-09   -2.820000e+00    8.612785e-01    1.432338e+00
    9.344226e-01    5.733309e+01    1.162984e+01    1.535527e+08    1.126367e-08    3.160841e-11    1.089545e-08    1.994029e-09   -2.810000e+00    8.612785e-01    1.424415e+00
    9.399862e-01    5.955503e+01    1.152135e+01    1.530286e+08    1.126348e-08    3.074152e-11    1.088880e-08    1.993571e-09   -2.800000e+00    8.612785e-01    1.416502e+00
    9.455803e-01    6.180787e+01    1.141324e+01    1.524973e+08    1.126330e-08    2.990140e-11    1.088213e-08    1.993116e-09   -2.790000e+00    8.612785e-01    1.408598e+00
    9.512074e-01    6.408997e+01    1.130551e+01    1.519592e+08    1.126312e-08    2.908713e-11    1.087544e-08    1.992661e-09   -2.780000e+00    8.612785e-01    1.400703e+00
    9.568702e-01    6.639978e+01    1.119817e+01    1.514148e+08    1.126295e-08    2.829780e-11    1.086871e-08    1.992207e-09   -2.770000e+00    8.612785e-01    1.392818e+00
    9.625699e-01    6.873583e+01    1.109122e+01    1.508642e+08    1.126278e-08    2.753258e-11    1.086196e-08    1.991754e-09   -2.760000e+00    8.612785e-01    1.384941e+00
    9.683094e-01    7.109675e+01    1.098465e+01    1.503078e+08    1.126261e-08    2.679061e-11    1.085518e-08    1.991302e-09   -2.750000e+00    8.612785e-01    1.377073e+00
    9.740906e-01    7.348136e+01    1.087849e+01    1.497461e+08    1.126244e-08    2.607112e-11    1.084839e-08    1.990851e-09   -2.740000e+00    8.612785e-01    1.369214e+00
    9.799155e-01    7.588855e+01    1.077272e+01    1.491791e+08    1.126228e-08    2.537334e-11    1.084156e-08    1.990400e-09   -2.730000e+00    8.612785e-01    1.361365e+00
    9.857861e-01    7.831728e+01    1.066736e+01    1.486072e+08    1.126212e-08    2.469652e-11    1.083471e-08    1.989950e-09   -2.720000e+00    8.612785e-01    1.353524e+00
    9.917045e-01    8.076662e+01    1.056241e+01    1.480306e+08    1.126196e-08    2.403996e-11    1.082783e-08    1.989500e-09   -2.710000e+00    8.612785e-01    1.345692e+00
    9.976716e-01    8.323583e+01    1.045786e+01    1.474495e+08    1.126179e-08    2.340297e-11    1.082093e-08    1.989051e-09   -2.700000e+00    8.612785e-01    1.337869e+00
    1.003690e+00    8.572411e+01    1.035374e+01    1.468640e+08    1.126163e-08    2.278490e-11    1.081401e-08    1.988603e-09   -2.690000e+00    8.612785e-01    1.330055e+00
    1.009761e+00    8.823101e+01    1.025003e+01    1.462745e+08    1.126147e-08    2.218511e-11    1.080705e-08    1.988155e-09   -2.680000e+00    8.612785e-01    1.322250e+00
    1.015887e+00    9.075589e+01    1.014673e+01    1.456811e+08    1.126131e-08    2.160299e-11    1.080007e-08    1.987707e-09   -2.670000e+00    8.612785e-01    1.314454e+00
    1.022069e+00    9.329840e+01    1.004387e+01    1.450838e+08    1.126115e-08    2.103796e-11    1.079307e-08    1.987259e-09   -2.660000e+00    8.612785e-01    1.306667e+00
    1.028310e+00    9.585820e+01    9.941425e+00    1.444829e+08    1.126098e-08    2.048944e-11    1.078604e-08    1.986811e-09   -2.650000e+00    8.612785e-01    1.298889e+00
    1.034610e+00    9.843504e+01    9.839410e+00    1.438786e+08    1.126081e-08    1.995688e-11    1.077899e-08    1.986364e-09   -2.640000e+00    8.612785e-01    1.291119e+00
    1.040971e+00    1.010287e+02    9.737825e+00    1.432708e+08    1.126064e-08    1.943978e-11    1.077191e-08    1.985916e-09   -2.630000e+00    8.612785e-01    1.283358e+00
    1.047395e+00    1.036391e+02    9.636675e+00    1.426598e+08    1.126046e-08    1.893761e-11    1.076481e-08    1.985469e-09   -2.620000e+00    8.612785e-01    1.275606e+00
    1.053883e+00    1.062662e+02    9.535960e+00    1.420456e+08    1.126029e-08    1.844989e-11    1.075768e-08    1.985020e-09   -2.610000e+00    8.612785e-01    1.267863e+00
    1.060438e+00    1.089101e+02    9.435680e+00    1.414283e+08    1.126010e-08    1.797615e-11    1.075053e-08    1.984573e-09   -2.600000e+00    8.612785e-01    1.260128e+00
    1.067061e+00    1.115707e+02    9.335840e+00    1.408082e+08    1.125991e-08    1.751593e-11    1.074334e-08    1.984125e-09   -2.590000e+00    8.612785e-01    1.252402e+00
    1.073752e+00    1.142483e+02    9.236445e+00    1.401851e+08    1.125971e-08    1.706880e-11    1.073614e-08    1.983676e-09   -2.580000e+00    8.612785e-01    1.244685e+00
    1.080515e+00    1.169429e+02    9.137490e+00    1.395591e+08    1.125952e-08    1.663433e-11    1.072891e-08    1.983227e-09   -2.570000e+00    8.612785e-01    1.236977e+00
    1.087351e+00    1.196549e+02    9.038980e+00    1.389304e+08    1.125931e-08    1.621212e-11    1.072165e-08    1.982777e-09   -2.560000e+00    8.612785e-01    1.229277e+00
    1.094260e+00    1.223844e+02    8.940920e+00    1.382992e+08    1.125910e-08    1.580178e-11    1.071437e-08    1.982327e-09   -2.550000e+00    8.612785e-01    1.221586e+00
    1.101247e+00    1.251318e+02    8.843305e+00    1.376653e+08    1.125887e-08    1.540292e-11    1.070706e-08    1.981876e-09   -2.540000e+00    8.612785e-01    1.213904e+00
    1.108310e+00    1.278976e+02    8.746145e+00    1.370288e+08    1.125865e-08    1.501518e-11    1.069972e-08    1.981425e-09   -2.530000e+00    8.612785e-01    1.206230e+00
    1.115452e+00    1.306818e+02    8.649440e+00    1.363898e+08    1.125842e-08    1.463822e-11    1.069236e-08    1.980973e-09   -2.520000e+00    8.612785e-01    1.198565e+00
    1.122676e+00    1.334851e+02    8.553185e+00    1.357484e+08    1.125817e-08    1.427169e-11    1.068497e-08    1.980520e-09   -2.510000e+00    8.612785e-01    1.190908e+00
    1.129982e+00    1.363078e+02    8.457390e+00    1.351045e+08    1.125792e-08    1.391526e-11    1.067756e-08    1.980065e-09   -2.500000e+00    8.612785e-01    1.183260e+00
    1.137372e+00    1.391504e+02    8.362055e+00    1.344583e+08    1.125766e-08    1.356862e-11    1.067011e-08    1.979611e-09   -2.490000e+00    8.612785e-01    1.175620e+00
    1.144849e+00    1.420134e+02    8.267175e+00    1.338098e+08    1.125739e-08    1.323145e-11    1.066264e-08    1.979154e-09   -2.480000e+00    8.612785e-01    1.167989e+00
    1.152414e+00    1.448973e+02    8.172760e+00    1.331590e+08    1.125711e-08    1.290348e-11    1.065515e-08    1.978698e-09   -2.470000e+00    8.612785e-01    1.160367e+00
    1.160069e+00    1.478027e+02    8.078810e+00    1.325061e+08    1.125682e-08    1.258441e-11    1.064762e-08    1.978240e-09   -2.460000e+00    8.612785e-01    1.152753e+00
    1.167815e+00    1.507300e+02    7.985320e+00    1.318508e+08    1.125652e-08    1.227396e-11    1.064007e-08    1.977780e-09   -2.450000e+00    8.612785e-01    1.145147e+00
    1.175655e+00    1.536799e+02    7.892300e+00    1.311933e+08    1.125620e-08    1.197189e-11    1.063249e-08    1.977319e-09   -2.440000e+00    8.612785e-01    1.137550e+00
    1.183590e+00    1.566530e+02    7.799750e+00    1.305338e+08    1.125588e-08    1.167792e-11    1.062487e-08    1.976857e-09   -2.430000e+00    8.612785e-01    1.129962e+00
    1.191624e+00    1.596497e+02    7.707665e+00    1.298721e+08    1.125555e-08    1.139181e-11    1.061724e-08    1.976393e-09   -2.420000e+00    8.612785e-01    1.122381e+00
    1.199756e+00    1.626709e+02    7.616055e+00    1.292082e+08    1.125520e-08    1.111332e-11    1.060957e-08    1.975928e-09   -2.410000e+00    8.612785e-01    1.114810e+00
    1.207990e+00    1.657172e+02    7.524920e+00    1.285422e+08    1.125484e-08    1.084222e-11    1.060188e-08    1.975460e-09   -2.400000e+00    8.612785e-01    1.107246e+00
    1.216328e+00    1.687890e+02    7.434255e+00    1.278743e+08    1.125447e-08    1.057829e-11    1.059415e-08    1.974992e-09   -2.390000e+00    8.612785e-01    1.099691e+00
    1.224771e+00    1.718874e+02    7.344070e+00    1.272043e+08    1.125408e-08    1.032131e-11    1.058639e-08    1.974522e-09   -2.380000e+00    8.612785e-01    1.092144e+00
    1.233322e+00    1.750127e+02    7.254360e+00    1.265323e+08    1.125368e-08    1.007108e-11    1.057860e-08    1.974050e-09   -2.370000e+00    8.612785e-01    1.084606e+00
    1.241984e+00    1.781658e+02    7.165130e+00    1.258582e+08    1.125327e-08    9.827390e-12    1.057079e-08    1.973575e-09   -2.360000e+00    8.612785e-01    1.077076e+00
    1.250758e+00    1.813474e+02    7.076380e+00    1.251822e+08    1.125284e-08    9.590050e-12    1.056294e-08    1.973099e-09   -2.350000e+00    8.612785e-01    1.069554e+00
    1.259647e+00    1.845583e+02    6.988115e+00    1.245042e+08    1.125240e-08    9.358875e-12    1.055506e-08    1.972621e-09   -2.340000e+00    8.612785e-01    1.062040e+00
    1.268652e+00    1.877990e+02    6.900330e+00    1.238241e+08    1.125194e-08    9.133680e-12    1.054715e-08    1.972140e-09   -2.330000e+00    8.612785e-01    1.054535e+00
    1.277778e+00    1.910706e+02    6.813035e+00    1.231422e+08    1.125147e-08    8.914285e-12    1.053921e-08    1.971658e-09   -2.320000e+00    8.612785e-01    1.047038e+00
    1.287026e+00    1.943737e+02    6.726220e+00    1.224583e+08    1.125098e-08    8.700530e-12    1.053123e-08    1.971173e-09   -2.310000e+00    8.612785e-01    1.039549e+00
    1.296399e+00    1.977091e+02    6.639895e+00    1.217725e+08    1.125046e-08    8.492245e-12    1.052322e-08    1.970686e-09   -2.300000e+00    8.612785e-01    1.032069e+00
    1.305898e+00    2.010777e+02    6.554065e+00    1.210848e+08    1.124995e-08    8.289270e-12    1.051518e-08    1.970196e-09   -2.290000e+00    8.612785e-01    1.024596e+00
    1.315528e+00    2.044803e+02    6.468720e+00    1.203953e+08    1.124940e-08    8.091450e-12    1.050710e-08    1.969704e-09   -2.280000e+00    8.612785e-01    1.017132e+00
    1.325291e+00    2.079177e+02    6.383870e+00    1.197037e+08    1.124885e-08    7.898645e-12    1.049900e-08    1.969209e-09   -2.270000e+00    8.612785e-01    1.009676e+00
    1.335190e+00    2.113908e+02    6.299510e+00    1.190103e+08    1.124826e-08    7.710700e-12    1.049085e-08    1.968712e-09   -2.260000e+00    8.612785e-01    1.002228e+00
    1.345229e+00    2.149006e+02    6.215645e+00    1.183150e+08    1.124767e-08    7.527485e-12    1.048267e-08    1.968211e-09   -2.250000e+00    8.612785e-01    9.947881e-01
    1.355408e+00    2.184477e+02    6.132280e+00    1.176179e+08    1.124706e-08    7.348860e-12    1.047445e-08    1.967708e-09   -2.240000e+00    8.612785e-01    9.873563e-01
    1.365731e+00    2.220333e+02    6.049415e+00    1.169188e+08    1.124643e-08    7.174700e-12    1.046620e-08    1.967202e-09   -2.230000e+00    8.612785e-01    9.799326e-01
    1.376204e+00    2.256582e+02    5.967045e+00    1.162179e+08    1.124577e-08    7.004870e-12    1.045791e-08    1.966692e-09   -2.220000e+00    8.612785e-01    9.725170e-01
