# GF180MCU-D pfet_03v3 gm/ID Processed Lookup Table
# Corner: ss
# Temperature: 25C
# W = 2.0 um
# L = 0.5 um (500 nm)
# Columns: gm/id [1/V]  gm/gds [V/V]  id/W [A/m]  ft [Hz]  Cgg/W [F/m]  Cgd/W [F/m]  Cgs/W [F/m]  Cdb/W [F/m]  vgs [V]  vth [V]  vdsat [V]
# vdsat = BSIM saturation voltage (|VDS|_sat, positive); use for headroom / saturation / cascode-bias calculations
#           gm/id          gm/gds            id/W              ft           Cgg/W           Cgd/W           Cgs/W           Cdb/W             vgs             vth           vdsat
    5.446345e-01    3.029495e+00    1.100971e+02    5.791728e+09    1.647756e-09    3.804166e-11    1.512104e-09    2.717850e-10   -3.300000e+00    9.011752e-01    1.851952e+00
    5.490671e-01    3.096716e+00    1.094975e+02    5.809459e+09    1.647077e-09    3.669301e-11    1.511906e-09    2.716198e-10   -3.290000e+00    9.011752e-01    1.844588e+00
    5.535557e-01    3.166373e+00    1.088946e+02    5.827021e+09    1.646423e-09    3.539044e-11    1.511688e-09    2.714573e-10   -3.280000e+00    9.011752e-01    1.837225e+00
    5.580872e-01    3.238565e+00    1.082910e+02    5.844397e+09    1.645793e-09    3.413268e-11    1.511448e-09    2.712973e-10   -3.270000e+00    9.011752e-01    1.829862e+00
    5.626661e-01    3.313403e+00    1.076859e+02    5.861582e+09    1.645186e-09    3.291848e-11    1.511188e-09    2.711399e-10   -3.260000e+00    9.011752e-01    1.822500e+00
    5.672915e-01    3.390993e+00    1.070793e+02    5.878565e+09    1.644601e-09    3.174658e-11    1.510909e-09    2.709850e-10   -3.250000e+00    9.011752e-01    1.815139e+00
    5.719633e-01    3.471442e+00    1.064710e+02    5.895325e+09    1.644038e-09    3.061573e-11    1.510611e-09    2.708326e-10   -3.240000e+00    9.011752e-01    1.807779e+00
    5.766805e-01    3.554867e+00    1.058613e+02    5.911858e+09    1.643496e-09    2.952471e-11    1.510294e-09    2.706826e-10   -3.230000e+00    9.011752e-01    1.800420e+00
    5.814439e-01    3.641382e+00    1.052501e+02    5.928152e+09    1.642975e-09    2.847229e-11    1.509961e-09    2.705351e-10   -3.220000e+00    9.011752e-01    1.793061e+00
    5.862515e-01    3.731100e+00    1.046374e+02    5.944185e+09    1.642474e-09    2.745727e-11    1.509610e-09    2.703900e-10   -3.210000e+00    9.011752e-01    1.785702e+00
    5.911028e-01    3.824135e+00    1.040232e+02    5.959944e+09    1.641993e-09    2.647847e-11    1.509243e-09    2.702472e-10   -3.200000e+00    9.011752e-01    1.778345e+00
    5.959968e-01    3.920600e+00    1.034076e+02    5.975412e+09    1.641530e-09    2.553470e-11    1.508859e-09    2.701068e-10   -3.190000e+00    9.011752e-01    1.770988e+00
    6.009334e-01    4.020614e+00    1.027906e+02    5.990579e+09    1.641085e-09    2.462485e-11    1.508461e-09    2.699687e-10   -3.180000e+00    9.011752e-01    1.763631e+00
    6.059104e-01    4.124280e+00    1.021722e+02    6.005420e+09    1.640658e-09    2.374777e-11    1.508048e-09    2.698328e-10   -3.170000e+00    9.011752e-01    1.756275e+00
    6.109272e-01    4.231708e+00    1.015525e+02    6.019920e+09    1.640247e-09    2.290237e-11    1.507620e-09    2.696991e-10   -3.160000e+00    9.011752e-01    1.748920e+00
    6.159822e-01    4.343000e+00    1.009314e+02    6.034061e+09    1.639853e-09    2.208757e-11    1.507179e-09    2.695677e-10   -3.150000e+00    9.011752e-01    1.741565e+00
    6.210746e-01    4.458251e+00    1.003090e+02    6.047825e+09    1.639475e-09    2.130231e-11    1.506724e-09    2.694384e-10   -3.140000e+00    9.011752e-01    1.734211e+00
    6.262025e-01    4.577552e+00    9.968540e+01    6.061190e+09    1.639112e-09    2.054558e-11    1.506255e-09    2.693112e-10   -3.130000e+00    9.011752e-01    1.726857e+00
    6.313640e-01    4.700980e+00    9.906060e+01    6.074138e+09    1.638764e-09    1.981637e-11    1.505775e-09    2.691861e-10   -3.120000e+00    9.011752e-01    1.719504e+00
    6.365580e-01    4.828606e+00    9.843455e+01    6.086644e+09    1.638430e-09    1.911370e-11    1.505283e-09    2.690630e-10   -3.110000e+00    9.011752e-01    1.712151e+00
    6.417832e-01    4.960497e+00    9.780740e+01    6.098704e+09    1.638108e-09    1.843665e-11    1.504779e-09    2.689418e-10   -3.100000e+00    9.011752e-01    1.704799e+00
    6.470369e-01    5.096694e+00    9.717915e+01    6.110281e+09    1.637801e-09    1.778426e-11    1.504264e-09    2.688226e-10   -3.090000e+00    9.011752e-01    1.697447e+00
    6.523185e-01    5.237234e+00    9.654985e+01    6.121366e+09    1.637507e-09    1.715568e-11    1.503738e-09    2.687053e-10   -3.080000e+00    9.011752e-01    1.690095e+00
    6.576261e-01    5.382143e+00    9.591955e+01    6.131946e+09    1.637224e-09    1.655001e-11    1.503201e-09    2.685899e-10   -3.070000e+00    9.011752e-01    1.682744e+00
    6.629576e-01    5.531422e+00    9.528830e+01    6.141994e+09    1.636953e-09    1.596644e-11    1.502655e-09    2.684763e-10   -3.060000e+00    9.011752e-01    1.675393e+00
    6.683119e-01    5.685060e+00    9.465610e+01    6.151498e+09    1.636693e-09    1.540413e-11    1.502098e-09    2.683644e-10   -3.050000e+00    9.011752e-01    1.668042e+00
    6.736871e-01    5.843040e+00    9.402310e+01    6.160443e+09    1.636444e-09    1.486230e-11    1.501532e-09    2.682542e-10   -3.040000e+00    9.011752e-01    1.660692e+00
    6.790821e-01    6.005317e+00    9.338930e+01    6.168816e+09    1.636205e-09    1.434020e-11    1.500957e-09    2.681458e-10   -3.030000e+00    9.011752e-01    1.653342e+00
    6.844954e-01    6.171839e+00    9.275475e+01    6.176606e+09    1.635976e-09    1.383708e-11    1.500373e-09    2.680390e-10   -3.020000e+00    9.011752e-01    1.645992e+00
    6.899267e-01    6.342539e+00    9.211950e+01    6.183806e+09    1.635757e-09    1.335224e-11    1.499781e-09    2.679339e-10   -3.010000e+00    9.011752e-01    1.638643e+00
    6.953740e-01    6.517335e+00    9.148365e+01    6.190406e+09    1.635547e-09    1.288498e-11    1.499180e-09    2.678302e-10   -3.000000e+00    9.011752e-01    1.631293e+00
    7.008367e-01    6.696127e+00    9.084720e+01    6.196393e+09    1.635346e-09    1.243465e-11    1.498572e-09    2.677281e-10   -2.990000e+00    9.011752e-01    1.623944e+00
    7.063146e-01    6.878823e+00    9.021030e+01    6.201777e+09    1.635153e-09    1.200061e-11    1.497956e-09    2.676275e-10   -2.980000e+00    9.011752e-01    1.616595e+00
    7.118068e-01    7.065295e+00    8.957290e+01    6.206543e+09    1.634968e-09    1.158223e-11    1.497332e-09    2.675283e-10   -2.970000e+00    9.011752e-01    1.609246e+00
    7.173131e-01    7.255430e+00    8.893515e+01    6.210697e+09    1.634790e-09    1.117894e-11    1.496701e-09    2.674305e-10   -2.960000e+00    9.011752e-01    1.601897e+00
    7.228339e-01    7.449103e+00    8.829705e+01    6.214240e+09    1.634620e-09    1.079015e-11    1.496063e-09    2.673342e-10   -2.950000e+00    9.011752e-01    1.594549e+00
    7.283691e-01    7.646184e+00    8.765865e+01    6.217170e+09    1.634457e-09    1.041530e-11    1.495418e-09    2.672391e-10   -2.940000e+00    9.011752e-01    1.587200e+00
    7.339184e-01    7.846534e+00    8.702010e+01    6.219499e+09    1.634301e-09    1.005388e-11    1.494767e-09    2.671453e-10   -2.930000e+00    9.011752e-01    1.579851e+00
    7.394827e-01    8.050035e+00    8.638140e+01    6.221227e+09    1.634152e-09    9.705355e-12    1.494109e-09    2.670528e-10   -2.920000e+00    9.011752e-01    1.572503e+00
    7.450630e-01    8.256549e+00    8.574255e+01    6.222363e+09    1.634008e-09    9.369255e-12    1.493445e-09    2.669615e-10   -2.910000e+00    9.011752e-01    1.565154e+00
    7.506590e-01    8.465957e+00    8.510375e+01    6.222916e+09    1.633871e-09    9.045095e-12    1.492774e-09    2.668713e-10   -2.900000e+00    9.011752e-01    1.557806e+00
    7.562733e-01    8.678137e+00    8.446490e+01    6.222899e+09    1.633738e-09    8.732425e-12    1.492098e-09    2.667823e-10   -2.890000e+00    9.011752e-01    1.550457e+00
    7.619056e-01    8.892986e+00    8.382620e+01    6.222319e+09    1.633612e-09    8.430800e-12    1.491416e-09    2.666944e-10   -2.880000e+00    9.011752e-01    1.543108e+00
    7.675573e-01    9.110382e+00    8.318760e+01    6.221186e+09    1.633489e-09    8.139805e-12    1.490729e-09    2.666076e-10   -2.870000e+00    9.011752e-01    1.535760e+00
    7.732309e-01    9.330244e+00    8.254915e+01    6.219517e+09    1.633373e-09    7.859030e-12    1.490036e-09    2.665218e-10   -2.860000e+00    9.011752e-01    1.528411e+00
    7.789265e-01    9.552489e+00    8.191100e+01    6.217322e+09    1.633260e-09    7.588090e-12    1.489337e-09    2.664371e-10   -2.850000e+00    9.011752e-01    1.521062e+00
    7.846454e-01    9.777018e+00    8.127315e+01    6.214610e+09    1.633153e-09    7.326610e-12    1.488634e-09    2.663533e-10   -2.840000e+00    9.011752e-01    1.513712e+00
    7.903903e-01    1.000378e+01    8.063560e+01    6.211400e+09    1.633049e-09    7.074230e-12    1.487926e-09    2.662704e-10   -2.830000e+00    9.011752e-01    1.506363e+00
    7.961618e-01    1.023272e+01    7.999850e+01    6.207700e+09    1.632949e-09    6.830605e-12    1.487212e-09    2.661885e-10   -2.820000e+00    9.011752e-01    1.499013e+00
    8.019627e-01    1.046379e+01    7.936180e+01    6.203529e+09    1.632853e-09    6.595400e-12    1.486493e-09    2.661074e-10   -2.810000e+00    9.011752e-01    1.491663e+00
    8.077931e-01    1.069693e+01    7.872560e+01    6.198890e+09    1.632760e-09    6.368300e-12    1.485770e-09    2.660272e-10   -2.800000e+00    9.011752e-01    1.484313e+00
    8.136564e-01    1.093213e+01    7.808990e+01    6.193803e+09    1.632671e-09    6.149000e-12    1.485043e-09    2.659478e-10   -2.790000e+00    9.011752e-01    1.476963e+00
    8.195523e-01    1.116936e+01    7.745485e+01    6.188277e+09    1.632584e-09    5.937205e-12    1.484310e-09    2.658692e-10   -2.780000e+00    9.011752e-01    1.469612e+00
    8.254850e-01    1.140861e+01    7.682035e+01    6.182328e+09    1.632501e-09    5.732625e-12    1.483573e-09    2.657913e-10   -2.770000e+00    9.011752e-01    1.462261e+00
    8.314538e-01    1.164987e+01    7.618655e+01    6.175957e+09    1.632422e-09    5.535000e-12    1.482831e-09    2.657142e-10   -2.760000e+00    9.011752e-01    1.454909e+00
    8.374627e-01    1.189316e+01    7.555345e+01    6.169193e+09    1.632344e-09    5.344065e-12    1.482086e-09    2.656378e-10   -2.750000e+00    9.011752e-01    1.447557e+00
    8.435114e-01    1.213847e+01    7.492110e+01    6.162027e+09    1.632269e-09    5.159565e-12    1.481335e-09    2.655621e-10   -2.740000e+00    9.011752e-01    1.440205e+00
    8.496027e-01    1.238581e+01    7.428955e+01    6.154483e+09    1.632196e-09    4.981268e-12    1.480581e-09    2.654871e-10   -2.730000e+00    9.011752e-01    1.432852e+00
    8.557389e-01    1.263522e+01    7.365880e+01    6.146569e+09    1.632125e-09    4.808938e-12    1.479823e-09    2.654126e-10   -2.720000e+00    9.011752e-01    1.425499e+00
    8.619211e-01    1.288671e+01    7.302890e+01    6.138289e+09    1.632056e-09    4.642355e-12    1.479060e-09    2.653388e-10   -2.710000e+00    9.011752e-01    1.418145e+00
    8.681504e-01    1.314031e+01    7.239990e+01    6.129652e+09    1.631989e-09    4.481305e-12    1.478293e-09    2.652655e-10   -2.700000e+00    9.011752e-01    1.410790e+00
    8.744299e-01    1.339608e+01    7.177185e+01    6.120675e+09    1.631924e-09    4.325585e-12    1.477523e-09    2.651928e-10   -2.690000e+00    9.011752e-01    1.403436e+00
    8.807607e-01    1.365403e+01    7.114475e+01    6.111360e+09    1.631860e-09    4.174999e-12    1.476748e-09    2.651206e-10   -2.680000e+00    9.011752e-01    1.396080e+00
    8.871447e-01    1.391420e+01    7.051860e+01    6.101714e+09    1.631798e-09    4.029358e-12    1.475969e-09    2.650490e-10   -2.670000e+00    9.011752e-01    1.388724e+00
    8.935832e-01    1.417666e+01    6.989355e+01    6.091748e+09    1.631738e-09    3.888480e-12    1.475187e-09    2.649778e-10   -2.660000e+00    9.011752e-01    1.381367e+00
    9.000787e-01    1.444143e+01    6.926950e+01    6.081465e+09    1.631678e-09    3.752193e-12    1.474400e-09    2.649070e-10   -2.650000e+00    9.011752e-01    1.374010e+00
    9.066319e-01    1.470858e+01    6.864660e+01    6.070875e+09    1.631620e-09    3.620329e-12    1.473610e-09    2.648368e-10   -2.640000e+00    9.011752e-01    1.366652e+00
    9.132449e-01    1.497814e+01    6.802480e+01    6.059978e+09    1.631562e-09    3.492727e-12    1.472816e-09    2.647668e-10   -2.630000e+00    9.011752e-01    1.359293e+00
    9.199204e-01    1.525020e+01    6.740415e+01    6.048789e+09    1.631506e-09    3.369233e-12    1.472018e-09    2.646974e-10   -2.620000e+00    9.011752e-01    1.351933e+00
    9.266598e-01    1.552479e+01    6.678465e+01    6.037308e+09    1.631450e-09    3.249700e-12    1.471216e-09    2.646283e-10   -2.610000e+00    9.011752e-01    1.344573e+00
    9.334640e-01    1.580197e+01    6.616640e+01    6.025543e+09    1.631395e-09    3.133984e-12    1.470411e-09    2.645595e-10   -2.600000e+00    9.011752e-01    1.337211e+00
    9.403351e-01    1.608180e+01    6.554940e+01    6.013496e+09    1.631340e-09    3.021950e-12    1.469602e-09    2.644912e-10   -2.590000e+00    9.011752e-01    1.329849e+00
    9.472754e-01    1.636435e+01    6.493365e+01    6.001172e+09    1.631286e-09    2.913466e-12    1.468789e-09    2.644231e-10   -2.580000e+00    9.011752e-01    1.322486e+00
    9.542858e-01    1.664966e+01    6.431920e+01    5.988575e+09    1.631232e-09    2.808405e-12    1.467973e-09    2.643553e-10   -2.570000e+00    9.011752e-01    1.315122e+00
    9.613687e-01    1.693782e+01    6.370610e+01    5.975712e+09    1.631179e-09    2.706648e-12    1.467153e-09    2.642878e-10   -2.560000e+00    9.011752e-01    1.307758e+00
    9.685273e-01    1.722890e+01    6.309430e+01    5.962587e+09    1.631125e-09    2.608076e-12    1.466328e-09    2.642206e-10   -2.550000e+00    9.011752e-01    1.300392e+00
    9.757610e-01    1.752293e+01    6.248390e+01    5.949200e+09    1.631072e-09    2.512577e-12    1.465501e-09    2.641535e-10   -2.540000e+00    9.011752e-01    1.293025e+00
    9.830723e-01    1.782002e+01    6.187495e+01    5.935556e+09    1.631019e-09    2.420045e-12    1.464670e-09    2.640868e-10   -2.530000e+00    9.011752e-01    1.285658e+00
    9.904631e-01    1.812019e+01    6.126740e+01    5.921655e+09    1.630966e-09    2.330374e-12    1.463834e-09    2.640202e-10   -2.520000e+00    9.011752e-01    1.278289e+00
    9.979369e-01    1.842356e+01    6.066130e+01    5.907509e+09    1.630912e-09    2.243466e-12    1.462996e-09    2.639538e-10   -2.510000e+00    9.011752e-01    1.270919e+00
    1.005495e+00    1.873017e+01    6.005665e+01    5.893113e+09    1.630859e-09    2.159226e-12    1.462153e-09    2.638876e-10   -2.500000e+00    9.011752e-01    1.263548e+00
    1.013137e+00    1.904009e+01    5.945355e+01    5.878471e+09    1.630804e-09    2.077561e-12    1.461306e-09    2.638215e-10   -2.490000e+00    9.011752e-01    1.256176e+00
    1.020867e+00    1.935340e+01    5.885200e+01    5.863584e+09    1.630750e-09    1.998381e-12    1.460457e-09    2.637556e-10   -2.480000e+00    9.011752e-01    1.248802e+00
    1.028687e+00    1.967018e+01    5.825195e+01    5.848459e+09    1.630695e-09    1.921602e-12    1.459603e-09    2.636898e-10   -2.470000e+00    9.011752e-01    1.241428e+00
    1.036600e+00    1.999051e+01    5.765350e+01    5.833095e+09    1.630639e-09    1.847142e-12    1.458745e-09    2.636241e-10   -2.460000e+00    9.011752e-01    1.234052e+00
    1.044606e+00    2.031447e+01    5.705670e+01    5.817500e+09    1.630582e-09    1.774922e-12    1.457884e-09    2.635585e-10   -2.450000e+00    9.011752e-01    1.226675e+00
    1.052707e+00    2.064209e+01    5.646150e+01    5.801661e+09    1.630525e-09    1.704867e-12    1.457019e-09    2.634929e-10   -2.440000e+00    9.011752e-01    1.219297e+00
    1.060907e+00    2.097351e+01    5.586795e+01    5.785595e+09    1.630467e-09    1.636903e-12    1.456150e-09    2.634275e-10   -2.430000e+00    9.011752e-01    1.211917e+00
    1.069207e+00    2.130878e+01    5.527610e+01    5.769296e+09    1.630409e-09    1.570959e-12    1.455277e-09    2.633620e-10   -2.420000e+00    9.011752e-01    1.204536e+00
    1.077610e+00    2.164798e+01    5.468595e+01    5.752764e+09    1.630350e-09    1.506968e-12    1.454401e-09    2.632966e-10   -2.410000e+00    9.011752e-01    1.197154e+00
    1.086118e+00    2.199120e+01    5.409750e+01    5.736008e+09    1.630289e-09    1.444864e-12    1.453520e-09    2.632313e-10   -2.400000e+00    9.011752e-01    1.189770e+00
    1.094733e+00    2.233853e+01    5.351080e+01    5.719024e+09    1.630226e-09    1.384587e-12    1.452635e-09    2.631659e-10   -2.390000e+00    9.011752e-01    1.182385e+00
    1.103458e+00    2.269005e+01    5.292590e+01    5.701811e+09    1.630164e-09    1.326073e-12    1.451746e-09    2.631004e-10   -2.380000e+00    9.011752e-01    1.174998e+00
    1.112295e+00    2.304586e+01    5.234280e+01    5.684380e+09    1.630100e-09    1.269266e-12    1.450854e-09    2.630350e-10   -2.370000e+00    9.011752e-01    1.167610e+00
    1.121247e+00    2.340603e+01    5.176150e+01    5.666720e+09    1.630034e-09    1.214109e-12    1.449958e-09    2.629695e-10   -2.360000e+00    9.011752e-01    1.160220e+00
    1.130316e+00    2.377066e+01    5.118205e+01    5.648836e+09    1.629967e-09    1.160549e-12    1.449057e-09    2.629040e-10   -2.350000e+00    9.011752e-01    1.152829e+00
    1.139506e+00    2.413984e+01    5.060445e+01    5.630728e+09    1.629899e-09    1.108533e-12    1.448152e-09    2.628384e-10   -2.340000e+00    9.011752e-01    1.145436e+00
    1.148816e+00    2.451367e+01    5.002880e+01    5.612402e+09    1.629829e-09    1.058012e-12    1.447244e-09    2.627728e-10   -2.330000e+00    9.011752e-01    1.138041e+00
    1.158254e+00    2.489225e+01    4.945500e+01    5.593854e+09    1.629757e-09    1.008936e-12    1.446331e-09    2.627070e-10   -2.320000e+00    9.011752e-01    1.130644e+00
    1.167819e+00    2.527568e+01    4.888316e+01    5.575086e+09    1.629685e-09    9.612595e-13    1.445413e-09    2.626411e-10   -2.310000e+00    9.011752e-01    1.123246e+00
    1.177516e+00    2.566405e+01    4.831327e+01    5.556096e+09    1.629610e-09    9.149375e-13    1.444492e-09    2.625750e-10   -2.300000e+00    9.011752e-01    1.115846e+00
    1.187347e+00    2.605747e+01    4.774537e+01    5.536886e+09    1.629534e-09    8.699270e-13    1.443566e-09    2.625089e-10   -2.290000e+00    9.011752e-01    1.108445e+00
    1.197314e+00    2.645604e+01    4.717948e+01    5.517457e+09    1.629455e-09    8.261865e-13    1.442635e-09    2.624426e-10   -2.280000e+00    9.011752e-01    1.101041e+00
    1.207422e+00    2.685987e+01    4.661561e+01    5.497806e+09    1.629375e-09    7.836745e-13    1.441701e-09    2.623761e-10   -2.270000e+00    9.011752e-01    1.093636e+00
    1.217674e+00    2.726910e+01    4.605379e+01    5.477942e+09    1.629293e-09    7.423535e-13    1.440762e-09    2.623094e-10   -2.260000e+00    9.011752e-01    1.086228e+00
    1.228073e+00    2.768381e+01    4.549404e+01    5.457857e+09    1.629209e-09    7.021860e-13    1.439819e-09    2.622425e-10   -2.250000e+00    9.011752e-01    1.078819e+00
    1.238622e+00    2.810412e+01    4.493639e+01    5.437553e+09    1.629122e-09    6.631350e-13    1.438870e-09    2.621755e-10   -2.240000e+00    9.011752e-01    1.071408e+00
    1.249324e+00    2.853015e+01    4.438087e+01    5.417028e+09    1.629033e-09    6.251665e-13    1.437917e-09    2.621082e-10   -2.230000e+00    9.011752e-01    1.063995e+00
    1.260184e+00    2.896202e+01    4.382748e+01    5.396284e+09    1.628943e-09    5.882470e-13    1.436960e-09    2.620407e-10   -2.220000e+00    9.011752e-01    1.056579e+00
